Time,MLII [mV],V5 [mV]
0.000,-0.925,-0.470
0.003,-0.925,-0.470
0.006,-0.925,-0.470
0.008,-0.925,-0.470
0.011,-0.925,-0.470
0.014,-0.925,-0.470
0.017,-0.925,-0.470
0.019,-0.920,-0.470
0.022,-0.920,-0.470
0.025,-0.940,-0.485
0.028,-0.940,-0.490
0.031,-0.955,-0.510
0.033,-0.970,-0.515
0.036,-0.970,-0.515
0.039,-0.980,-0.515
0.042,-0.980,-0.505
0.044,-0.965,-0.500
0.047,-0.950,-0.505
0.050,-0.940,-0.480
0.053,-0.910,-0.475
0.056,-0.925,-0.505
0.058,-0.930,-0.500
0.061,-0.945,-0.530
0.064,-0.950,-0.510
0.067,-0.960,-0.530
0.069,-0.960,-0.535
0.072,-0.965,-0.515
0.075,-0.970,-0.525
0.078,-0.965,-0.510
0.081,-0.970,-0.505
0.083,-0.985,-0.495
0.086,-0.950,-0.500
0.089,-0.950,-0.525
0.092,-0.950,-0.505
0.094,-0.930,-0.525
0.097,-0.925,-0.540
0.100,-0.940,-0.535
0.103,-0.950,-0.545
0.106,-0.970,-0.540
0.108,-0.955,-0.540
0.111,-0.960,-0.515
0.114,-0.960,-0.505
0.117,-0.945,-0.505
0.119,-0.930,-0.510
0.122,-0.925,-0.505
0.125,-0.940,-0.520
0.128,-0.940,-0.525
0.131,-0.940,-0.525
0.133,-0.955,-0.545
0.136,-0.950,-0.545
0.139,-0.980,-0.550
0.142,-0.960,-0.530
0.144,-0.965,-0.530
0.147,-0.945,-0.510
0.150,-0.950,-0.515
0.153,-0.945,-0.500
0.156,-0.945,-0.510
0.158,-0.955,-0.525
0.161,-0.960,-0.530
0.164,-0.955,-0.530
0.167,-0.970,-0.545
0.169,-0.980,-0.555
0.172,-0.970,-0.540
0.175,-0.975,-0.520
0.178,-0.965,-0.525
0.181,-0.950,-0.515
0.183,-0.950,-0.515
0.186,-0.935,-0.510
0.189,-0.930,-0.515
0.192,-0.930,-0.525
0.194,-0.940,-0.535
0.197,-0.935,-0.550
0.200,-0.950,-0.570
0.203,-0.970,-0.555
0.206,-0.965,-0.560
0.208,-0.965,-0.555
0.211,-0.970,-0.530
0.214,-0.970,-0.520
0.217,-0.960,-0.520
0.219,-0.930,-0.520
0.222,-0.950,-0.530
0.225,-0.960,-0.525
0.228,-0.975,-0.545
0.231,-0.955,-0.535
0.233,-0.960,-0.565
0.236,-0.960,-0.560
0.239,-0.960,-0.560
0.242,-0.970,-0.550
0.244,-0.955,-0.535
0.247,-0.940,-0.520
0.250,-0.940,-0.525
0.253,-0.930,-0.525
0.256,-0.925,-0.510
0.258,-0.930,-0.530
0.261,-0.925,-0.535
0.264,-0.935,-0.555
0.267,-0.960,-0.580
0.269,-0.950,-0.560
0.272,-0.960,-0.575
0.275,-0.955,-0.570
0.278,-0.945,-0.535
0.281,-0.940,-0.555
0.283,-0.925,-0.550
0.286,-0.920,-0.520
0.289,-0.925,-0.550
0.292,-0.920,-0.535
0.294,-0.925,-0.555
0.297,-0.935,-0.555
0.300,-0.935,-0.570
0.303,-0.935,-0.565
0.306,-0.960,-0.570
0.308,-0.945,-0.545
0.311,-0.905,-0.550
0.314,-0.885,-0.540
0.317,-0.855,-0.525
0.319,-0.825,-0.510
0.322,-0.825,-0.530
0.325,-0.815,-0.535
0.328,-0.825,-0.535
0.331,-0.810,-0.550
0.333,-0.835,-0.555
0.336,-0.835,-0.530
0.339,-0.835,-0.515
0.342,-0.785,-0.495
0.344,-0.780,-0.480
0.347,-0.760,-0.450
0.350,-0.750,-0.435
0.353,-0.760,-0.415
0.356,-0.745,-0.400
0.358,-0.750,-0.390
0.361,-0.775,-0.390
0.364,-0.780,-0.365
0.367,-0.800,-0.360
0.369,-0.825,-0.355
0.372,-0.845,-0.360
0.375,-0.840,-0.360
0.378,-0.835,-0.355
0.381,-0.825,-0.350
0.383,-0.835,-0.345
0.386,-0.850,-0.345
0.389,-0.865,-0.375
0.392,-0.895,-0.380
0.394,-0.920,-0.415
0.397,-0.930,-0.430
0.400,-0.940,-0.470
0.403,-0.945,-0.490
0.406,-0.955,-0.495
0.408,-0.980,-0.490
0.411,-0.970,-0.505
0.414,-0.970,-0.500
0.417,-0.970,-0.475
0.419,-0.935,-0.485
0.422,-0.965,-0.480
0.425,-0.960,-0.510
0.428,-0.960,-0.515
0.431,-0.965,-0.545
0.433,-0.985,-0.545
0.436,-0.985,-0.555
0.439,-0.990,-0.550
0.442,-0.995,-0.540
0.444,-0.975,-0.530
0.447,-0.985,-0.520
0.450,-0.970,-0.520
0.453,-0.955,-0.510
0.456,-0.945,-0.535
0.458,-0.945,-0.535
0.461,-0.955,-0.550
0.464,-0.950,-0.565
0.467,-0.970,-0.560
0.469,-0.985,-0.585
0.472,-0.975,-0.575
0.475,-0.950,-0.545
0.478,-0.905,-0.550
0.481,-0.830,-0.535
0.483,-0.750,-0.500
0.486,-0.620,-0.425
0.489,-0.500,-0.285
0.492,-0.340,-0.095
0.494,-0.175,0.120
0.497,-0.035,0.370
0.500,0.030,0.625
0.503,0.010,0.890
0.506,-0.110,1.085
0.508,-0.330,1.190
0.511,-0.580,1.175
0.514,-0.865,1.005
0.517,-1.155,0.720
0.519,-1.415,0.380
0.522,-1.625,-0.060
0.525,-1.755,-0.425
0.528,-1.760,-0.725
0.531,-1.680,-0.865
0.533,-1.565,-0.860
0.536,-1.445,-0.785
0.539,-1.330,-0.680
0.542,-1.245,-0.585
0.544,-1.165,-0.530
0.547,-1.100,-0.515
0.550,-1.015,-0.495
0.553,-0.940,-0.485
0.556,-0.885,-0.475
0.558,-0.860,-0.490
0.561,-0.865,-0.490
0.564,-0.870,-0.490
0.567,-0.885,-0.490
0.569,-0.890,-0.505
0.572,-0.905,-0.500
0.575,-0.910,-0.490
0.578,-0.890,-0.485
0.581,-0.850,-0.475
0.583,-0.845,-0.450
0.586,-0.835,-0.460
0.589,-0.845,-0.450
0.592,-0.835,-0.465
0.594,-0.840,-0.470
0.597,-0.850,-0.485
0.600,-0.830,-0.490
0.603,-0.845,-0.495
0.606,-0.845,-0.485
0.608,-0.855,-0.475
0.611,-0.820,-0.455
0.614,-0.810,-0.435
0.617,-0.810,-0.435
0.619,-0.790,-0.440
0.622,-0.785,-0.435
0.625,-0.785,-0.445
0.628,-0.775,-0.435
0.631,-0.790,-0.450
0.633,-0.780,-0.445
0.636,-0.800,-0.445
0.639,-0.785,-0.435
0.642,-0.785,-0.450
0.644,-0.780,-0.420
0.647,-0.760,-0.410
0.650,-0.755,-0.390
0.653,-0.730,-0.395
0.656,-0.720,-0.385
0.658,-0.720,-0.400
0.661,-0.725,-0.415
0.664,-0.730,-0.405
0.667,-0.725,-0.415
0.669,-0.725,-0.400
0.672,-0.720,-0.405
0.675,-0.740,-0.380
0.678,-0.725,-0.365
0.681,-0.705,-0.350
0.683,-0.685,-0.335
0.686,-0.660,-0.335
0.689,-0.680,-0.315
0.692,-0.665,-0.305
0.694,-0.655,-0.325
0.697,-0.645,-0.325
0.700,-0.650,-0.325
0.703,-0.625,-0.300
0.706,-0.630,-0.290
0.708,-0.615,-0.265
0.711,-0.590,-0.240
0.714,-0.570,-0.215
0.717,-0.560,-0.175
0.719,-0.530,-0.180
0.722,-0.515,-0.160
0.725,-0.505,-0.140
0.728,-0.485,-0.140
0.731,-0.470,-0.135
0.733,-0.480,-0.135
0.736,-0.450,-0.120
0.739,-0.450,-0.085
0.742,-0.440,-0.065
0.744,-0.395,-0.035
0.747,-0.380,-0.010
0.750,-0.335,0.020
0.753,-0.305,0.055
0.756,-0.305,0.050
0.758,-0.290,0.070
0.761,-0.275,0.065
0.764,-0.275,0.090
0.767,-0.250,0.070
0.769,-0.255,0.080
0.772,-0.250,0.100
0.775,-0.240,0.125
0.778,-0.220,0.145
0.781,-0.200,0.165
0.783,-0.195,0.185
0.786,-0.175,0.185
0.789,-0.170,0.195
0.792,-0.170,0.185
0.794,-0.175,0.190
0.797,-0.180,0.175
0.800,-0.195,0.170
0.803,-0.195,0.165
0.806,-0.230,0.135
0.808,-0.235,0.125
0.811,-0.265,0.140
0.814,-0.265,0.125
0.817,-0.280,0.115
0.819,-0.300,0.075
0.822,-0.335,0.030
0.825,-0.360,0.000
0.828,-0.400,-0.035
0.831,-0.430,-0.085
0.833,-0.470,-0.125
0.836,-0.505,-0.170
0.839,-0.540,-0.200
0.842,-0.565,-0.225
0.844,-0.590,-0.250
0.847,-0.610,-0.280
0.850,-0.630,-0.300
0.853,-0.650,-0.325
0.856,-0.665,-0.370
0.858,-0.690,-0.400
0.861,-0.735,-0.430
0.864,-0.750,-0.450
0.867,-0.775,-0.485
0.869,-0.795,-0.495
0.872,-0.790,-0.495
0.875,-0.820,-0.525
0.878,-0.810,-0.490
0.881,-0.810,-0.510
0.883,-0.810,-0.500
0.886,-0.815,-0.515
0.889,-0.815,-0.515
0.892,-0.820,-0.550
0.894,-0.825,-0.545
0.897,-0.845,-0.555
0.900,-0.865,-0.570
0.903,-0.870,-0.560
0.906,-0.890,-0.565
0.908,-0.885,-0.565
0.911,-0.875,-0.545
0.914,-0.870,-0.550
0.917,-0.870,-0.545
0.919,-0.850,-0.545
0.922,-0.860,-0.545
0.925,-0.855,-0.550
0.928,-0.855,-0.570
0.931,-0.860,-0.575
0.933,-0.870,-0.570
0.936,-0.870,-0.580
0.939,-0.870,-0.575
0.942,-0.865,-0.570
0.944,-0.865,-0.565
0.947,-0.850,-0.540
0.950,-0.840,-0.525
0.953,-0.845,-0.525
0.956,-0.820,-0.530
0.958,-0.860,-0.520
0.961,-0.870,-0.555
0.964,-0.860,-0.555
0.967,-0.865,-0.555
0.969,-0.870,-0.550
0.972,-0.865,-0.550
0.975,-0.860,-0.535
0.978,-0.845,-0.530
0.981,-0.840,-0.530
0.983,-0.820,-0.505
0.986,-0.820,-0.505
0.989,-0.820,-0.520
0.992,-0.830,-0.510
0.994,-0.825,-0.530
0.997,-0.835,-0.530
1.000,-0.850,-0.545
1.003,-0.870,-0.550
1.006,-0.875,-0.560
1.008,-0.875,-0.530
1.011,-0.880,-0.535
1.014,-0.875,-0.525
1.017,-0.875,-0.525
1.019,-0.865,-0.535
1.022,-0.855,-0.525
1.025,-0.855,-0.525
1.028,-0.865,-0.545
1.031,-0.880,-0.550
1.033,-0.875,-0.560
1.036,-0.890,-0.595
1.039,-0.895,-0.580
1.042,-0.900,-0.580
1.044,-0.890,-0.570
1.047,-0.895,-0.555
1.050,-0.885,-0.550
1.053,-0.885,-0.555
1.056,-0.885,-0.555
1.058,-0.890,-0.575
1.061,-0.900,-0.595
1.064,-0.915,-0.600
1.067,-0.915,-0.620
1.069,-0.920,-0.625
1.072,-0.935,-0.610
1.075,-0.920,-0.605
1.078,-0.925,-0.595
1.081,-0.905,-0.580
1.083,-0.900,-0.590
1.086,-0.895,-0.565
1.089,-0.905,-0.585
1.092,-0.915,-0.600
1.094,-0.930,-0.605
1.097,-0.930,-0.610
1.100,-0.950,-0.610
1.103,-0.945,-0.620
1.106,-0.975,-0.625
1.108,-0.955,-0.605
1.111,-0.930,-0.610
1.114,-0.935,-0.605
1.117,-0.910,-0.590
1.119,-0.905,-0.590
1.122,-0.895,-0.595
1.125,-0.910,-0.595
1.128,-0.905,-0.615
1.131,-0.915,-0.615
1.133,-0.915,-0.620
1.136,-0.935,-0.615
1.139,-0.930,-0.640
1.142,-0.935,-0.620
1.144,-0.930,-0.600
1.147,-0.920,-0.605
1.150,-0.915,-0.590
1.153,-0.905,-0.600
1.156,-0.920,-0.600
1.158,-0.920,-0.600
1.161,-0.925,-0.620
1.164,-0.915,-0.625
1.167,-0.930,-0.640
1.169,-0.940,-0.620
1.172,-0.945,-0.620
1.175,-0.950,-0.615
1.178,-0.930,-0.590
1.181,-0.920,-0.615
1.183,-0.920,-0.590
1.186,-0.910,-0.580
1.189,-0.920,-0.585
1.192,-0.915,-0.605
1.194,-0.920,-0.625
1.197,-0.940,-0.620
1.200,-0.950,-0.650
1.203,-0.945,-0.650
1.206,-0.940,-0.630
1.208,-0.945,-0.635
1.211,-0.945,-0.620
1.214,-0.940,-0.615
1.217,-0.925,-0.610
1.219,-0.930,-0.615
1.222,-0.920,-0.620
1.225,-0.925,-0.635
1.228,-0.935,-0.635
1.231,-0.935,-0.640
1.233,-0.945,-0.640
1.236,-0.945,-0.675
1.239,-0.975,-0.660
1.242,-0.975,-0.665
1.244,-0.960,-0.650
1.247,-0.935,-0.635
1.250,-0.925,-0.630
1.253,-0.915,-0.635
1.256,-0.925,-0.625
1.258,-0.925,-0.635
1.261,-0.920,-0.645
1.264,-0.925,-0.655
1.267,-0.935,-0.670
1.269,-0.935,-0.665
1.272,-0.950,-0.665
1.275,-0.940,-0.665
1.278,-0.935,-0.645
1.281,-0.925,-0.645
1.283,-0.925,-0.635
1.286,-0.915,-0.620
1.289,-0.920,-0.620
1.292,-0.925,-0.635
1.294,-0.920,-0.620
1.297,-0.935,-0.620
1.300,-0.945,-0.620
1.303,-0.955,-0.620
1.306,-0.955,-0.635
1.308,-0.955,-0.625
1.311,-0.950,-0.605
1.314,-0.930,-0.590
1.317,-0.930,-0.585
1.319,-0.915,-0.580
1.322,-0.920,-0.590
1.325,-0.930,-0.595
1.328,-0.945,-0.615
1.331,-0.955,-0.615
1.333,-0.970,-0.615
1.336,-0.980,-0.620
1.339,-0.960,-0.620
1.342,-0.975,-0.645
1.344,-0.945,-0.610
1.347,-0.940,-0.610
1.350,-0.935,-0.595
1.353,-0.915,-0.585
1.356,-0.920,-0.600
1.358,-0.930,-0.610
1.361,-0.925,-0.615
1.364,-0.940,-0.620
1.367,-0.940,-0.630
1.369,-0.935,-0.640
1.372,-0.945,-0.625
1.375,-0.940,-0.645
1.378,-0.935,-0.605
1.381,-0.925,-0.605
1.383,-0.920,-0.590
1.386,-0.920,-0.605
1.389,-0.915,-0.605
1.392,-0.930,-0.610
1.394,-0.920,-0.615
1.397,-0.920,-0.625
1.400,-0.930,-0.640
1.403,-0.940,-0.640
1.406,-0.945,-0.615
1.408,-0.935,-0.620
1.411,-0.930,-0.610
1.414,-0.925,-0.605
1.417,-0.915,-0.600
1.419,-0.910,-0.595
1.422,-0.905,-0.600
1.425,-0.905,-0.615
1.428,-0.915,-0.630
1.431,-0.935,-0.625
1.433,-0.935,-0.635
1.436,-0.945,-0.635
1.439,-0.930,-0.630
1.442,-0.905,-0.620
1.444,-0.885,-0.625
1.447,-0.860,-0.615
1.450,-0.845,-0.600
1.453,-0.815,-0.595
1.456,-0.810,-0.605
1.458,-0.800,-0.605
1.461,-0.805,-0.615
1.464,-0.830,-0.605
1.467,-0.820,-0.605
1.469,-0.825,-0.595
1.472,-0.800,-0.590
1.475,-0.795,-0.570
1.478,-0.785,-0.555
1.481,-0.760,-0.525
1.483,-0.735,-0.505
1.486,-0.720,-0.490
1.489,-0.725,-0.465
1.492,-0.740,-0.465
1.494,-0.750,-0.450
1.497,-0.770,-0.445
1.500,-0.800,-0.470
1.503,-0.810,-0.480
1.506,-0.820,-0.475
1.508,-0.810,-0.470
1.511,-0.825,-0.480
1.514,-0.825,-0.460
1.517,-0.845,-0.460
1.519,-0.840,-0.465
1.522,-0.875,-0.505
1.525,-0.885,-0.515
1.528,-0.920,-0.525
1.531,-0.925,-0.565
1.533,-0.945,-0.585
1.536,-0.950,-0.620
1.539,-0.950,-0.615
1.542,-0.955,-0.635
1.544,-0.945,-0.615
1.547,-0.945,-0.620
1.550,-0.940,-0.620
1.553,-0.925,-0.610
1.556,-0.930,-0.625
1.558,-0.945,-0.620
1.561,-0.945,-0.650
1.564,-0.950,-0.645
1.567,-0.960,-0.670
1.569,-0.980,-0.670
1.572,-0.970,-0.680
1.575,-0.970,-0.660
1.578,-0.970,-0.675
1.581,-0.960,-0.645
1.583,-0.960,-0.635
1.586,-0.945,-0.650
1.589,-0.955,-0.625
1.592,-0.950,-0.640
1.594,-0.955,-0.630
1.597,-0.965,-0.635
1.600,-0.960,-0.655
1.603,-0.960,-0.660
1.606,-0.955,-0.660
1.608,-0.945,-0.640
1.611,-0.920,-0.635
1.614,-0.910,-0.635
1.617,-0.860,-0.635
1.619,-0.785,-0.610
1.622,-0.715,-0.580
1.625,-0.600,-0.495
1.628,-0.490,-0.380
1.631,-0.355,-0.200
1.633,-0.225,0.035
1.636,-0.100,0.280
1.639,-0.045,0.550
1.642,-0.090,0.800
1.644,-0.210,0.975
1.647,-0.430,1.060
1.650,-0.690,1.005
1.653,-0.970,0.820
1.656,-1.240,0.510
1.658,-1.490,0.105
1.661,-1.665,-0.310
1.664,-1.730,-0.660
1.667,-1.700,-0.895
1.669,-1.600,-0.975
1.672,-1.490,-0.940
1.675,-1.375,-0.840
1.678,-1.275,-0.745
1.681,-1.200,-0.690
1.683,-1.120,-0.620
1.686,-1.035,-0.615
1.689,-0.980,-0.610
1.692,-0.930,-0.605
1.694,-0.885,-0.595
1.697,-0.890,-0.590
1.700,-0.890,-0.585
1.703,-0.870,-0.590
1.706,-0.895,-0.600
1.708,-0.910,-0.605
1.711,-0.895,-0.595
1.714,-0.870,-0.575
1.717,-0.855,-0.580
1.719,-0.840,-0.565
1.722,-0.820,-0.585
1.725,-0.830,-0.560
1.728,-0.820,-0.585
1.731,-0.835,-0.575
1.733,-0.845,-0.590
1.736,-0.840,-0.585
1.739,-0.845,-0.570
1.742,-0.835,-0.590
1.744,-0.830,-0.565
1.747,-0.830,-0.570
1.750,-0.810,-0.540
1.753,-0.790,-0.545
1.756,-0.790,-0.540
1.758,-0.790,-0.555
1.761,-0.790,-0.565
1.764,-0.800,-0.565
1.767,-0.800,-0.565
1.769,-0.800,-0.570
1.772,-0.800,-0.555
1.775,-0.810,-0.535
1.778,-0.785,-0.535
1.781,-0.780,-0.520
1.783,-0.775,-0.520
1.786,-0.755,-0.495
1.789,-0.755,-0.515
1.792,-0.760,-0.505
1.794,-0.755,-0.500
1.797,-0.755,-0.535
1.800,-0.760,-0.530
1.803,-0.770,-0.535
1.806,-0.755,-0.490
1.808,-0.765,-0.495
1.811,-0.755,-0.470
1.814,-0.745,-0.470
1.817,-0.730,-0.475
1.819,-0.705,-0.460
1.822,-0.740,-0.455
1.825,-0.710,-0.455
1.828,-0.705,-0.450
1.831,-0.715,-0.470
1.833,-0.710,-0.470
1.836,-0.710,-0.450
1.839,-0.705,-0.460
1.842,-0.690,-0.440
1.844,-0.665,-0.415
1.847,-0.645,-0.395
1.850,-0.610,-0.375
1.853,-0.595,-0.365
1.856,-0.590,-0.360
1.858,-0.595,-0.365
1.861,-0.580,-0.365
1.864,-0.575,-0.355
1.867,-0.565,-0.345
1.869,-0.560,-0.330
1.872,-0.550,-0.315
1.875,-0.530,-0.295
1.878,-0.515,-0.255
1.881,-0.480,-0.225
1.883,-0.465,-0.205
1.886,-0.430,-0.180
1.889,-0.405,-0.165
1.892,-0.375,-0.155
1.894,-0.390,-0.140
1.897,-0.380,-0.130
1.900,-0.365,-0.120
1.903,-0.345,-0.105
1.906,-0.345,-0.085
1.908,-0.315,-0.075
1.911,-0.300,-0.035
1.914,-0.280,-0.025
1.917,-0.250,-0.005
1.919,-0.250,0.010
1.922,-0.240,0.030
1.925,-0.230,0.015
1.928,-0.225,0.015
1.931,-0.220,0.020
1.933,-0.235,0.005
1.936,-0.235,0.015
1.939,-0.230,0.010
1.942,-0.225,0.015
1.944,-0.245,0.035
1.947,-0.240,0.035
1.950,-0.250,0.055
1.953,-0.250,0.030
1.956,-0.260,0.000
1.958,-0.270,-0.015
1.961,-0.305,-0.050
1.964,-0.335,-0.075
1.967,-0.375,-0.115
1.969,-0.415,-0.145
1.972,-0.450,-0.180
1.975,-0.480,-0.195
1.978,-0.500,-0.230
1.981,-0.505,-0.245
1.983,-0.550,-0.280
1.986,-0.575,-0.315
1.989,-0.585,-0.340
1.992,-0.615,-0.385
1.994,-0.645,-0.425
1.997,-0.680,-0.455
2.000,-0.720,-0.475
2.003,-0.750,-0.515
2.006,-0.775,-0.550
2.008,-0.775,-0.570
2.011,-0.800,-0.560
2.014,-0.810,-0.595
2.017,-0.810,-0.600
2.019,-0.815,-0.590
2.022,-0.820,-0.625
2.025,-0.840,-0.640
2.028,-0.865,-0.660
2.031,-0.875,-0.675
2.033,-0.885,-0.710
2.036,-0.900,-0.705
2.039,-0.890,-0.695
2.042,-0.895,-0.710
2.044,-0.900,-0.690
2.047,-0.885,-0.685
2.050,-0.885,-0.685
2.053,-0.885,-0.685
2.056,-0.890,-0.695
2.058,-0.880,-0.705
2.061,-0.885,-0.715
2.064,-0.895,-0.710
2.067,-0.910,-0.725
2.069,-0.905,-0.740
2.072,-0.910,-0.720
2.075,-0.895,-0.715
2.078,-0.890,-0.690
2.081,-0.890,-0.700
2.083,-0.880,-0.690
2.086,-0.865,-0.670
2.089,-0.865,-0.695
2.092,-0.865,-0.690
2.094,-0.855,-0.690
2.097,-0.885,-0.695
2.100,-0.870,-0.685
2.103,-0.880,-0.695
2.106,-0.900,-0.700
2.108,-0.895,-0.695
2.111,-0.885,-0.685
2.114,-0.870,-0.665
2.117,-0.870,-0.655
2.119,-0.855,-0.660
2.122,-0.850,-0.665
2.125,-0.850,-0.660
2.128,-0.855,-0.665
2.131,-0.865,-0.675
2.133,-0.870,-0.680
2.136,-0.875,-0.670
2.139,-0.895,-0.685
2.142,-0.905,-0.685
2.144,-0.895,-0.675
2.147,-0.895,-0.670
2.150,-0.900,-0.645
2.153,-0.875,-0.645
2.156,-0.885,-0.640
2.158,-0.885,-0.650
2.161,-0.885,-0.675
2.164,-0.900,-0.675
2.167,-0.910,-0.705
2.169,-0.915,-0.715
2.172,-0.930,-0.720
2.175,-0.940,-0.705
2.178,-0.935,-0.685
2.181,-0.930,-0.685
2.183,-0.915,-0.675
2.186,-0.910,-0.675
2.189,-0.920,-0.685
2.192,-0.905,-0.690
2.194,-0.925,-0.700
2.197,-0.945,-0.710
2.200,-0.940,-0.720
2.203,-0.960,-0.735
2.206,-0.975,-0.720
2.208,-0.965,-0.720
2.211,-0.960,-0.720
2.214,-0.955,-0.705
2.217,-0.955,-0.700
2.219,-0.970,-0.700
2.222,-0.945,-0.710
2.225,-0.945,-0.710
2.228,-0.945,-0.725
2.231,-0.965,-0.730
2.233,-0.970,-0.740
2.236,-0.980,-0.755
2.239,-0.995,-0.750
2.242,-1.010,-0.760
2.244,-1.020,-0.740
2.247,-0.995,-0.725
2.250,-0.990,-0.725
2.253,-0.970,-0.700
2.256,-0.970,-0.725
2.258,-0.970,-0.735
2.261,-0.965,-0.725
2.264,-0.990,-0.740
2.267,-0.995,-0.750
2.269,-1.005,-0.760
2.272,-1.015,-0.760
2.275,-1.000,-0.740
2.278,-0.995,-0.730
2.281,-0.990,-0.730
2.283,-0.990,-0.730
2.286,-0.990,-0.710
2.289,-1.000,-0.730
2.292,-0.995,-0.710
2.294,-1.000,-0.725
2.297,-1.000,-0.730
2.300,-1.005,-0.730
2.303,-1.020,-0.740
2.306,-1.035,-0.740
2.308,-1.030,-0.740
2.311,-1.025,-0.725
2.314,-1.020,-0.715
2.317,-1.010,-0.710
2.319,-0.995,-0.695
2.322,-1.005,-0.705
2.325,-1.000,-0.720
2.328,-1.010,-0.740
2.331,-1.030,-0.735
2.333,-1.025,-0.725
2.336,-1.030,-0.750
2.339,-1.045,-0.750
2.342,-1.045,-0.730
2.344,-1.025,-0.725
2.347,-1.035,-0.720
2.350,-1.020,-0.705
2.353,-1.005,-0.700
2.356,-1.005,-0.710
2.358,-1.005,-0.715
2.361,-1.010,-0.735
2.364,-1.020,-0.740
2.367,-1.015,-0.745
2.369,-1.035,-0.740
2.372,-1.040,-0.750
2.375,-1.045,-0.730
2.378,-1.050,-0.720
2.381,-1.030,-0.720
2.383,-1.025,-0.700
2.386,-1.015,-0.690
2.389,-1.020,-0.705
2.392,-1.015,-0.715
2.394,-1.010,-0.730
2.397,-1.040,-0.740
2.400,-1.035,-0.750
2.403,-1.050,-0.765
2.406,-1.050,-0.760
2.408,-1.050,-0.740
2.411,-1.045,-0.760
2.414,-1.045,-0.740
2.417,-1.020,-0.735
2.419,-1.000,-0.720
2.422,-1.000,-0.705
2.425,-1.015,-0.715
2.428,-1.010,-0.720
2.431,-1.010,-0.730
2.433,-1.020,-0.755
2.436,-1.035,-0.750
2.439,-1.060,-0.750
2.442,-1.060,-0.735
2.444,-1.030,-0.715
2.447,-1.040,-0.715
2.450,-1.030,-0.705
2.453,-1.010,-0.710
2.456,-1.015,-0.715
2.458,-1.020,-0.715
2.461,-1.000,-0.725
2.464,-1.010,-0.700
2.467,-1.015,-0.720
2.469,-1.030,-0.720
2.472,-1.030,-0.710
2.475,-1.035,-0.690
2.478,-1.035,-0.705
2.481,-1.035,-0.685
2.483,-1.030,-0.680
2.486,-1.025,-0.680
2.489,-1.000,-0.670
2.492,-1.005,-0.695
2.494,-1.025,-0.700
2.497,-1.030,-0.695
2.500,-1.025,-0.710
2.503,-1.045,-0.710
2.506,-1.050,-0.730
2.508,-1.040,-0.705
2.511,-1.040,-0.710
2.514,-1.010,-0.690
2.517,-1.010,-0.685
2.519,-1.005,-0.675
2.522,-1.010,-0.675
2.525,-1.010,-0.680
2.528,-1.020,-0.690
2.531,-1.020,-0.695
2.533,-1.010,-0.710
2.536,-1.020,-0.695
2.539,-1.025,-0.705
2.542,-1.040,-0.685
2.544,-1.020,-0.690
2.547,-1.015,-0.670
2.550,-1.005,-0.670
2.553,-0.990,-0.675
2.556,-0.995,-0.670
2.558,-0.980,-0.675
2.561,-0.980,-0.685
2.564,-0.985,-0.690
2.567,-1.000,-0.690
2.569,-1.000,-0.695
2.572,-0.995,-0.690
2.575,-0.985,-0.680
2.578,-0.965,-0.665
2.581,-0.955,-0.675
2.583,-0.930,-0.660
2.586,-0.925,-0.655
2.589,-0.925,-0.675
2.592,-0.920,-0.675
2.594,-0.930,-0.670
2.597,-0.920,-0.675
2.600,-0.900,-0.670
2.603,-0.895,-0.660
2.606,-0.885,-0.650
2.608,-0.875,-0.625
2.611,-0.875,-0.600
2.614,-0.845,-0.595
2.617,-0.825,-0.570
2.619,-0.820,-0.560
2.622,-0.805,-0.540
2.625,-0.810,-0.540
2.628,-0.820,-0.520
2.631,-0.840,-0.505
2.633,-0.865,-0.505
2.636,-0.890,-0.520
2.639,-0.900,-0.525
2.642,-0.915,-0.530
2.644,-0.905,-0.525
2.647,-0.895,-0.525
2.650,-0.910,-0.510
2.653,-0.915,-0.510
2.656,-0.940,-0.545
2.658,-0.960,-0.545
2.661,-0.975,-0.555
2.664,-1.005,-0.590
2.667,-1.005,-0.610
2.669,-1.010,-0.625
2.672,-1.010,-0.630
2.675,-1.030,-0.635
2.678,-1.035,-0.630
2.681,-1.040,-0.630
2.683,-1.015,-0.630
2.686,-1.015,-0.625
2.689,-1.025,-0.630
2.692,-1.020,-0.630
2.694,-1.025,-0.650
2.697,-1.045,-0.680
2.700,-1.045,-0.675
2.703,-1.055,-0.685
2.706,-1.060,-0.685
2.708,-1.060,-0.690
2.711,-1.060,-0.675
2.714,-1.045,-0.670
2.717,-1.040,-0.660
2.719,-1.035,-0.650
2.722,-1.015,-0.645
2.725,-1.010,-0.660
2.728,-1.005,-0.650
2.731,-1.035,-0.665
2.733,-1.020,-0.660
2.736,-1.035,-0.660
2.739,-1.035,-0.680
2.742,-1.020,-0.660
2.744,-0.980,-0.655
2.747,-0.910,-0.635
2.750,-0.830,-0.585
2.753,-0.715,-0.495
2.756,-0.600,-0.345
2.758,-0.460,-0.160
2.761,-0.335,0.070
2.764,-0.215,0.305
2.767,-0.165,0.560
2.769,-0.200,0.765
2.772,-0.335,0.925
2.775,-0.815,0.945
2.778,-1.095,0.795
2.781,-1.375,0.540
2.783,-1.605,0.170
2.786,-1.795,-0.235
2.789,-1.905,-0.660
2.792,-1.925,-1.010
2.794,-1.860,-1.195
2.797,-1.760,-1.235
2.800,-1.645,-1.125
2.803,-1.550,-1.000
2.806,-1.465,-0.890
2.808,-1.395,-0.800
2.811,-1.310,-0.750
2.814,-1.225,-0.715
2.817,-1.155,-0.680
2.819,-1.075,-0.670
2.822,-1.020,-0.625
2.825,-0.985,-0.615
2.828,-0.995,-0.605
2.831,-0.990,-0.590
2.833,-1.000,-0.590
2.836,-1.005,-0.595
2.839,-1.005,-0.585
2.842,-0.990,-0.580
2.844,-0.990,-0.575
2.847,-0.975,-0.565
2.850,-0.960,-0.565
2.853,-0.940,-0.565
2.856,-0.920,-0.565
2.858,-0.925,-0.560
2.861,-0.935,-0.560
2.864,-0.935,-0.560
2.867,-0.930,-0.560
2.869,-0.945,-0.545
2.872,-0.920,-0.535
2.875,-0.930,-0.520
2.878,-0.925,-0.505
2.881,-0.910,-0.500
2.883,-0.890,-0.495
2.886,-0.880,-0.485
2.889,-0.870,-0.490
2.892,-0.870,-0.505
2.894,-0.895,-0.500
2.897,-0.890,-0.510
2.900,-0.905,-0.505
2.903,-0.905,-0.505
2.906,-0.895,-0.500
2.908,-0.895,-0.485
2.911,-0.875,-0.470
2.914,-0.875,-0.445
2.917,-0.850,-0.445
2.919,-0.855,-0.440
2.922,-0.840,-0.435
2.925,-0.845,-0.440
2.928,-0.870,-0.440
2.931,-0.865,-0.465
2.933,-0.865,-0.435
2.936,-0.855,-0.445
2.939,-0.855,-0.430
2.942,-0.835,-0.425
2.944,-0.820,-0.400
2.947,-0.795,-0.385
2.950,-0.810,-0.370
2.953,-0.790,-0.370
2.956,-0.785,-0.370
2.958,-0.780,-0.360
2.961,-0.785,-0.350
2.964,-0.795,-0.355
2.967,-0.790,-0.345
2.969,-0.770,-0.335
2.972,-0.770,-0.330
2.975,-0.745,-0.310
2.978,-0.735,-0.290
2.981,-0.725,-0.275
2.983,-0.695,-0.230
2.986,-0.660,-0.220
2.989,-0.645,-0.225
2.992,-0.650,-0.210
2.994,-0.635,-0.190
2.997,-0.620,-0.185
3.000,-0.615,-0.155
3.003,-0.610,-0.155
3.006,-0.585,-0.115
3.008,-0.565,-0.085
3.011,-0.535,-0.075
3.014,-0.510,-0.050
3.017,-0.490,-0.035
3.019,-0.470,-0.005
3.022,-0.445,0.010
3.025,-0.430,0.020
3.028,-0.430,0.035
3.031,-0.430,0.040
3.033,-0.415,0.070
3.036,-0.400,0.075
3.039,-0.390,0.105
3.042,-0.375,0.140
3.044,-0.355,0.160
3.047,-0.330,0.165
3.050,-0.295,0.205
3.053,-0.285,0.210
3.056,-0.285,0.225
3.058,-0.265,0.210
3.061,-0.280,0.200
3.064,-0.280,0.195
3.067,-0.285,0.210
3.069,-0.315,0.210
3.072,-0.295,0.215
3.075,-0.310,0.205
3.078,-0.295,0.215
3.081,-0.300,0.195
3.083,-0.305,0.200
3.086,-0.320,0.155
3.089,-0.345,0.120
3.092,-0.370,0.085
3.094,-0.400,0.050
3.097,-0.430,-0.010
3.100,-0.480,-0.045
3.103,-0.525,-0.090
3.106,-0.560,-0.130
3.108,-0.595,-0.160
3.111,-0.615,-0.185
3.114,-0.640,-0.230
3.117,-0.655,-0.255
3.119,-0.675,-0.305
3.122,-0.710,-0.350
3.125,-0.730,-0.380
3.128,-0.760,-0.415
3.131,-0.775,-0.455
3.133,-0.800,-0.470
3.136,-0.830,-0.500
3.139,-0.845,-0.520
3.142,-0.860,-0.525
3.144,-0.865,-0.530
3.147,-0.870,-0.530
3.150,-0.860,-0.535
3.153,-0.865,-0.555
3.156,-0.880,-0.555
3.158,-0.890,-0.580
3.161,-0.910,-0.600
3.164,-0.915,-0.620
3.167,-0.935,-0.610
3.169,-0.930,-0.630
3.172,-0.930,-0.620
3.175,-0.930,-0.620
3.178,-0.915,-0.625
3.181,-0.915,-0.615
3.183,-0.905,-0.600
3.186,-0.905,-0.615
3.189,-0.910,-0.615
3.192,-0.900,-0.625
3.194,-0.935,-0.650
3.197,-0.935,-0.645
3.200,-0.960,-0.650
3.203,-0.950,-0.660
3.206,-0.940,-0.650
3.208,-0.930,-0.635
3.211,-0.925,-0.640
3.214,-0.910,-0.620
3.217,-0.895,-0.605
3.219,-0.895,-0.605
3.222,-0.875,-0.610
3.225,-0.885,-0.615
3.228,-0.895,-0.615
3.231,-0.895,-0.635
3.233,-0.910,-0.650
3.236,-0.915,-0.625
3.239,-0.910,-0.625
3.242,-0.895,-0.595
3.244,-0.905,-0.590
3.247,-0.900,-0.580
3.250,-0.885,-0.570
3.253,-0.880,-0.575
3.256,-0.875,-0.590
3.258,-0.885,-0.585
3.261,-0.890,-0.610
3.264,-0.885,-0.615
3.267,-0.895,-0.610
3.269,-0.910,-0.595
3.272,-0.900,-0.605
3.275,-0.905,-0.590
3.278,-0.895,-0.575
3.281,-0.890,-0.580
3.283,-0.890,-0.565
3.286,-0.880,-0.580
3.289,-0.875,-0.580
3.292,-0.905,-0.600
3.294,-0.900,-0.595
3.297,-0.910,-0.615
3.300,-0.930,-0.610
3.303,-0.925,-0.620
3.306,-0.935,-0.615
3.308,-0.930,-0.605
3.311,-0.935,-0.610
3.314,-0.920,-0.595
3.317,-0.905,-0.585
3.319,-0.900,-0.600
3.322,-0.905,-0.615
3.325,-0.905,-0.635
3.328,-0.935,-0.650
3.331,-0.940,-0.675
3.333,-0.950,-0.675
3.336,-0.955,-0.670
3.339,-0.955,-0.665
3.342,-0.965,-0.660
3.344,-0.945,-0.650
3.347,-0.935,-0.645
3.350,-0.930,-0.640
3.353,-0.935,-0.635
3.356,-0.945,-0.655
3.358,-0.935,-0.660
3.361,-0.945,-0.655
3.364,-0.940,-0.675
3.367,-0.965,-0.685
3.369,-0.970,-0.695
3.372,-0.965,-0.680
3.375,-0.960,-0.675
3.378,-0.955,-0.655
3.381,-0.955,-0.650
3.383,-0.955,-0.655
3.386,-0.945,-0.665
3.389,-0.945,-0.665
3.392,-0.950,-0.680
3.394,-0.970,-0.695
3.397,-0.960,-0.685
3.400,-0.970,-0.700
3.403,-0.970,-0.700
3.406,-0.975,-0.695
3.408,-0.965,-0.690
3.411,-0.965,-0.675
3.414,-0.955,-0.665
3.417,-0.955,-0.645
3.419,-0.955,-0.665
3.422,-0.955,-0.665
3.425,-0.965,-0.670
3.428,-0.965,-0.680
3.431,-0.975,-0.680
3.433,-0.980,-0.675
3.436,-1.000,-0.685
3.439,-0.985,-0.685
3.442,-0.975,-0.680
3.444,-0.975,-0.665
3.447,-0.955,-0.655
3.450,-0.950,-0.645
3.453,-0.950,-0.650
3.456,-0.955,-0.665
3.458,-0.965,-0.665
3.461,-0.970,-0.665
3.464,-0.960,-0.680
3.467,-0.965,-0.685
3.469,-0.980,-0.680
3.472,-0.975,-0.680
3.475,-0.975,-0.660
3.478,-0.975,-0.655
3.481,-0.965,-0.645
3.483,-0.950,-0.640
3.486,-0.960,-0.670
3.489,-0.970,-0.660
3.492,-0.980,-0.660
3.494,-0.945,-0.670
3.497,-0.965,-0.680
3.500,-0.980,-0.675
3.503,-0.990,-0.685
3.506,-0.985,-0.690
3.508,-0.975,-0.670
3.511,-0.980,-0.660
3.514,-0.965,-0.650
3.517,-0.960,-0.650
3.519,-0.950,-0.655
3.522,-0.955,-0.670
3.525,-0.955,-0.680
3.528,-0.955,-0.665
3.531,-0.970,-0.675
3.533,-0.970,-0.680
3.536,-0.965,-0.680
3.539,-0.980,-0.680
3.542,-0.970,-0.670
3.544,-0.960,-0.665
3.547,-0.955,-0.655
3.550,-0.950,-0.650
3.553,-0.940,-0.640
3.556,-0.945,-0.655
3.558,-0.945,-0.670
3.561,-0.970,-0.685
3.564,-0.965,-0.670
3.567,-0.970,-0.675
3.569,-0.975,-0.675
3.572,-0.975,-0.660
3.575,-0.975,-0.675
3.578,-0.960,-0.650
3.581,-0.950,-0.645
3.583,-0.950,-0.635
3.586,-0.950,-0.630
3.589,-0.930,-0.640
3.592,-0.925,-0.655
3.594,-0.935,-0.655
3.597,-0.940,-0.675
3.600,-0.950,-0.665
3.603,-0.960,-0.670
3.606,-0.960,-0.660
3.608,-0.955,-0.650
3.611,-0.970,-0.635
3.614,-0.960,-0.625
3.617,-0.950,-0.620
3.619,-0.955,-0.625
3.622,-0.945,-0.625
3.625,-0.945,-0.635
3.628,-0.940,-0.650
3.631,-0.945,-0.650
3.633,-0.965,-0.655
3.636,-0.960,-0.645
3.639,-0.960,-0.645
3.642,-0.950,-0.625
3.644,-0.950,-0.630
3.647,-0.950,-0.635
3.650,-0.930,-0.620
3.653,-0.930,-0.625
3.656,-0.930,-0.610
3.658,-0.930,-0.630
3.661,-0.940,-0.640
3.664,-0.935,-0.645
3.667,-0.960,-0.670
3.669,-0.955,-0.675
3.672,-0.950,-0.675
3.675,-0.945,-0.645
3.678,-0.945,-0.650
3.681,-0.930,-0.630
3.683,-0.925,-0.610
3.686,-0.910,-0.615
3.689,-0.915,-0.630
3.692,-0.920,-0.615
3.694,-0.920,-0.630
3.697,-0.910,-0.625
3.700,-0.895,-0.645
3.703,-0.905,-0.635
3.706,-0.875,-0.620
3.708,-0.875,-0.615
3.711,-0.845,-0.605
3.714,-0.830,-0.615
3.717,-0.835,-0.590
3.719,-0.815,-0.595
3.722,-0.810,-0.595
3.725,-0.800,-0.570
3.728,-0.805,-0.560
3.731,-0.780,-0.565
3.733,-0.790,-0.530
3.736,-0.780,-0.540
3.739,-0.775,-0.520
3.742,-0.770,-0.490
3.744,-0.770,-0.460
3.747,-0.770,-0.445
3.750,-0.785,-0.425
3.753,-0.810,-0.420
3.756,-0.800,-0.445
3.758,-0.810,-0.445
3.761,-0.815,-0.455
3.764,-0.830,-0.455
3.767,-0.845,-0.480
3.769,-0.845,-0.475
3.772,-0.875,-0.490
3.775,-0.900,-0.480
3.778,-0.905,-0.480
3.781,-0.910,-0.500
3.783,-0.925,-0.515
3.786,-0.920,-0.535
3.789,-0.925,-0.550
3.792,-0.920,-0.585
3.794,-0.915,-0.580
3.797,-0.940,-0.605
3.800,-0.955,-0.610
3.803,-0.975,-0.615
3.806,-0.970,-0.595
3.808,-0.970,-0.585
3.811,-0.955,-0.590
3.814,-0.955,-0.590
3.817,-0.955,-0.570
3.819,-0.960,-0.590
3.822,-0.960,-0.605
3.825,-0.935,-0.605
3.828,-0.950,-0.610
3.831,-0.960,-0.640
3.833,-0.965,-0.625
3.836,-0.965,-0.620
3.839,-0.970,-0.610
3.842,-0.965,-0.620
3.844,-0.945,-0.600
3.847,-0.945,-0.600
3.850,-0.935,-0.585
3.853,-0.925,-0.600
3.856,-0.930,-0.600
3.858,-0.920,-0.605
3.861,-0.925,-0.600
3.864,-0.935,-0.625
3.867,-0.905,-0.640
3.869,-0.860,-0.635
3.872,-0.795,-0.615
3.875,-0.700,-0.545
3.878,-0.575,-0.430
3.881,-0.435,-0.265
3.883,-0.265,-0.045
3.886,-0.150,0.180
3.889,-0.035,0.440
3.892,-0.020,0.690
3.894,-0.060,0.920
3.897,-0.205,1.095
3.900,-0.425,1.165
3.903,-0.700,1.075
3.906,-0.980,0.845
3.908,-1.245,0.530
3.911,-1.475,0.140
3.914,-1.620,-0.240
3.917,-1.660,-0.575
3.919,-1.615,-0.810
3.922,-1.500,-0.860
3.925,-1.375,-0.820
3.928,-1.265,-0.735
3.931,-1.165,-0.665
3.933,-1.105,-0.605
3.936,-1.045,-0.580
3.939,-0.985,-0.580
3.942,-0.915,-0.580
3.944,-0.905,-0.575
3.947,-0.870,-0.555
3.950,-0.835,-0.540
3.953,-0.835,-0.540
3.956,-0.840,-0.545
3.958,-0.855,-0.570
3.961,-0.870,-0.580
3.964,-0.855,-0.590
3.967,-0.845,-0.575
3.969,-0.855,-0.585
3.972,-0.835,-0.575
3.975,-0.825,-0.580
3.978,-0.820,-0.560
3.981,-0.810,-0.540
3.983,-0.805,-0.530
3.986,-0.795,-0.530
3.989,-0.795,-0.525
3.992,-0.785,-0.520
3.994,-0.785,-0.525
3.997,-0.795,-0.525
4.000,-0.805,-0.515
4.003,-0.805,-0.535
4.006,-0.805,-0.525
4.008,-0.820,-0.505
4.011,-0.790,-0.490
4.014,-0.785,-0.485
4.017,-0.760,-0.465
4.019,-0.750,-0.465
4.022,-0.740,-0.475
4.025,-0.745,-0.465
4.028,-0.740,-0.485
4.031,-0.765,-0.480
4.033,-0.765,-0.475
4.036,-0.780,-0.490
4.039,-0.760,-0.470
4.042,-0.760,-0.460
4.044,-0.745,-0.450
4.047,-0.735,-0.430
4.050,-0.725,-0.425
4.053,-0.720,-0.415
4.056,-0.705,-0.415
4.058,-0.705,-0.430
4.061,-0.710,-0.430
4.064,-0.710,-0.430
4.067,-0.705,-0.425
4.069,-0.735,-0.425
4.072,-0.705,-0.415
4.075,-0.695,-0.395
4.078,-0.685,-0.390
4.081,-0.665,-0.370
4.083,-0.650,-0.350
4.086,-0.645,-0.350
4.089,-0.630,-0.345
4.092,-0.635,-0.355
4.094,-0.635,-0.355
4.097,-0.645,-0.350
4.100,-0.640,-0.330
4.103,-0.615,-0.335
4.106,-0.600,-0.310
4.108,-0.590,-0.295
4.111,-0.580,-0.275
4.114,-0.550,-0.250
4.117,-0.535,-0.240
4.119,-0.515,-0.225
4.122,-0.510,-0.240
4.125,-0.495,-0.220
4.128,-0.480,-0.210
4.131,-0.475,-0.200
4.133,-0.465,-0.195
4.136,-0.455,-0.195
4.139,-0.440,-0.170
4.142,-0.435,-0.135
4.144,-0.410,-0.115
4.147,-0.375,-0.080
4.150,-0.355,-0.070
4.153,-0.330,-0.050
4.156,-0.305,-0.035
4.158,-0.300,-0.025
4.161,-0.300,-0.005
4.164,-0.285,-0.005
4.167,-0.295,0.010
4.169,-0.260,0.035
4.172,-0.250,0.045
4.175,-0.250,0.060
4.178,-0.215,0.100
4.181,-0.195,0.115
4.183,-0.200,0.125
4.186,-0.175,0.135
4.189,-0.175,0.145
4.192,-0.150,0.125
4.194,-0.160,0.125
4.197,-0.165,0.120
4.200,-0.170,0.135
4.203,-0.185,0.130
4.206,-0.185,0.145
4.208,-0.195,0.130
4.211,-0.190,0.125
4.214,-0.210,0.125
4.217,-0.215,0.110
4.219,-0.230,0.075
4.222,-0.255,0.065
4.225,-0.300,0.015
4.228,-0.330,-0.020
4.231,-0.375,-0.070
4.233,-0.400,-0.085
4.236,-0.430,-0.125
4.239,-0.445,-0.150
4.242,-0.475,-0.175
4.244,-0.505,-0.200
4.247,-0.520,-0.235
4.250,-0.550,-0.245
4.253,-0.555,-0.285
4.256,-0.580,-0.335
4.258,-0.605,-0.350
4.261,-0.650,-0.390
4.264,-0.685,-0.420
4.267,-0.705,-0.430
4.269,-0.725,-0.460
4.272,-0.740,-0.475
4.275,-0.740,-0.480
4.278,-0.750,-0.490
4.281,-0.760,-0.495
4.283,-0.765,-0.500
4.286,-0.760,-0.515
4.289,-0.775,-0.515
4.292,-0.785,-0.560
4.294,-0.790,-0.565
4.297,-0.800,-0.580
4.300,-0.810,-0.590
4.303,-0.825,-0.595
4.306,-0.830,-0.600
4.308,-0.825,-0.590
4.311,-0.825,-0.580
4.314,-0.815,-0.590
4.317,-0.805,-0.580
4.319,-0.815,-0.600
4.322,-0.805,-0.595
4.325,-0.820,-0.610
4.328,-0.820,-0.600
4.331,-0.830,-0.630
4.333,-0.845,-0.630
4.336,-0.845,-0.635
4.339,-0.845,-0.635
4.342,-0.850,-0.615
4.344,-0.840,-0.610
4.347,-0.815,-0.615
4.350,-0.800,-0.620
4.353,-0.800,-0.605
4.356,-0.795,-0.600
4.358,-0.790,-0.620
4.361,-0.795,-0.625
4.364,-0.800,-0.625
4.367,-0.815,-0.640
4.369,-0.820,-0.620
4.372,-0.855,-0.630
4.375,-0.840,-0.630
4.378,-0.830,-0.590
4.381,-0.800,-0.590
4.383,-0.785,-0.600
4.386,-0.780,-0.590
4.389,-0.785,-0.605
4.392,-0.785,-0.620
4.394,-0.790,-0.620
4.397,-0.805,-0.610
4.400,-0.815,-0.630
4.403,-0.830,-0.635
4.406,-0.840,-0.620
4.408,-0.825,-0.615
4.411,-0.815,-0.610
4.414,-0.815,-0.600
4.417,-0.810,-0.585
4.419,-0.815,-0.600
4.422,-0.820,-0.610
4.425,-0.835,-0.605
4.428,-0.820,-0.645
4.431,-0.840,-0.645
4.433,-0.855,-0.650
4.436,-0.855,-0.660
4.439,-0.865,-0.635
4.442,-0.850,-0.640
4.444,-0.855,-0.630
4.447,-0.845,-0.625
4.450,-0.840,-0.615
4.453,-0.850,-0.605
4.456,-0.850,-0.625
4.458,-0.855,-0.640
4.461,-0.875,-0.640
4.464,-0.890,-0.645
4.467,-0.885,-0.625
4.469,-0.895,-0.650
4.472,-0.895,-0.645
4.475,-0.895,-0.625
4.478,-0.885,-0.630
4.481,-0.905,-0.635
4.483,-0.880,-0.615
4.486,-0.885,-0.615
4.489,-0.870,-0.625
4.492,-0.885,-0.640
4.494,-0.880,-0.650
4.497,-0.890,-0.665
4.500,-0.905,-0.670
4.503,-0.905,-0.680
4.506,-0.910,-0.670
4.508,-0.900,-0.670
4.511,-0.915,-0.660
4.514,-0.905,-0.655
4.517,-0.905,-0.645
4.519,-0.885,-0.665
4.522,-0.895,-0.665
4.525,-0.900,-0.670
4.528,-0.900,-0.690
4.531,-0.905,-0.690
4.533,-0.910,-0.700
4.536,-0.910,-0.710
4.539,-0.910,-0.695
4.542,-0.905,-0.680
4.544,-0.930,-0.685
4.547,-0.905,-0.675
4.550,-0.900,-0.680
4.553,-0.900,-0.680
4.556,-0.905,-0.670
4.558,-0.905,-0.690
4.561,-0.935,-0.695
4.564,-0.925,-0.705
4.567,-0.920,-0.725
4.569,-0.935,-0.730
4.572,-0.940,-0.700
4.575,-0.925,-0.710
4.578,-0.935,-0.685
4.581,-0.910,-0.700
4.583,-0.910,-0.680
4.586,-0.915,-0.670
4.589,-0.920,-0.680
4.592,-0.920,-0.685
4.594,-0.920,-0.685
4.597,-0.930,-0.700
4.600,-0.920,-0.705
4.603,-0.940,-0.705
4.606,-0.945,-0.700
4.608,-0.940,-0.680
4.611,-0.935,-0.690
4.614,-0.945,-0.685
4.617,-0.935,-0.670
4.619,-0.925,-0.665
4.622,-0.935,-0.675
4.625,-0.920,-0.690
4.628,-0.935,-0.680
4.631,-0.935,-0.690
4.633,-0.935,-0.690
4.636,-0.945,-0.715
4.639,-0.940,-0.710
4.642,-0.950,-0.680
4.644,-0.925,-0.680
4.647,-0.935,-0.675
4.650,-0.925,-0.655
4.653,-0.925,-0.685
4.656,-0.925,-0.685
4.658,-0.925,-0.690
4.661,-0.945,-0.715
4.664,-0.945,-0.720
4.667,-0.945,-0.705
4.669,-0.960,-0.715
4.672,-0.955,-0.705
4.675,-0.945,-0.705
4.678,-0.940,-0.685
4.681,-0.920,-0.685
4.683,-0.915,-0.685
4.686,-0.910,-0.690
4.689,-0.910,-0.700
4.692,-0.910,-0.700
4.694,-0.930,-0.715
4.697,-0.925,-0.715
4.700,-0.930,-0.710
4.703,-0.950,-0.700
4.706,-0.955,-0.700
4.708,-0.935,-0.695
4.711,-0.920,-0.705
4.714,-0.940,-0.670
4.717,-0.925,-0.700
4.719,-0.915,-0.695
4.722,-0.910,-0.700
4.725,-0.910,-0.700
4.728,-0.925,-0.715
4.731,-0.930,-0.725
4.733,-0.950,-0.725
4.736,-0.950,-0.730
4.739,-0.960,-0.720
4.742,-0.950,-0.710
4.744,-0.935,-0.680
4.747,-0.940,-0.685
4.750,-0.930,-0.680
4.753,-0.930,-0.685
4.756,-0.920,-0.695
4.758,-0.930,-0.695
4.761,-0.925,-0.695
4.764,-0.925,-0.715
4.767,-0.930,-0.700
4.769,-0.940,-0.695
4.772,-0.940,-0.705
4.775,-0.920,-0.685
4.778,-0.915,-0.690
4.781,-0.925,-0.675
4.783,-0.910,-0.665
4.786,-0.915,-0.675
4.789,-0.910,-0.675
4.792,-0.900,-0.670
4.794,-0.910,-0.680
4.797,-0.930,-0.700
4.800,-0.925,-0.690
4.803,-0.945,-0.695
4.806,-0.950,-0.700
4.808,-0.945,-0.675
4.811,-0.935,-0.660
4.814,-0.915,-0.665
4.817,-0.905,-0.655
4.819,-0.900,-0.660
4.822,-0.895,-0.655
4.825,-0.890,-0.675
4.828,-0.895,-0.670
4.831,-0.900,-0.695
4.833,-0.925,-0.685
4.836,-0.935,-0.680
4.839,-0.925,-0.680
4.842,-0.920,-0.680
4.844,-0.920,-0.665
4.847,-0.920,-0.670
4.850,-0.915,-0.665
4.853,-0.895,-0.680
4.856,-0.895,-0.670
4.858,-0.895,-0.670
4.861,-0.900,-0.685
4.864,-0.900,-0.675
4.867,-0.905,-0.695
4.869,-0.900,-0.695
4.872,-0.885,-0.685
4.875,-0.885,-0.695
4.878,-0.865,-0.660
4.881,-0.850,-0.650
4.883,-0.830,-0.655
4.886,-0.830,-0.660
4.889,-0.810,-0.660
4.892,-0.830,-0.665
4.894,-0.820,-0.670
4.897,-0.820,-0.665
4.900,-0.820,-0.640
4.903,-0.810,-0.655
4.906,-0.795,-0.650
4.908,-0.785,-0.620
4.911,-0.755,-0.595
4.914,-0.730,-0.570
4.917,-0.730,-0.565
4.919,-0.710,-0.560
4.922,-0.700,-0.545
4.925,-0.710,-0.520
4.928,-0.745,-0.520
4.931,-0.750,-0.515
4.933,-0.785,-0.515
4.936,-0.820,-0.530
4.939,-0.815,-0.520
4.942,-0.820,-0.505
4.944,-0.810,-0.505
4.947,-0.810,-0.515
4.950,-0.820,-0.505
4.953,-0.820,-0.505
4.956,-0.835,-0.530
4.958,-0.855,-0.545
4.961,-0.895,-0.570
4.964,-0.910,-0.595
4.967,-0.915,-0.620
4.969,-0.925,-0.640
4.972,-0.925,-0.650
4.975,-0.925,-0.640
4.978,-0.915,-0.635
4.981,-0.930,-0.645
4.983,-0.920,-0.635
4.986,-0.920,-0.640
4.989,-0.935,-0.645
4.992,-0.950,-0.655
4.994,-0.965,-0.675
4.997,-0.965,-0.675
5.000,-0.995,-0.680
5.003,-0.980,-0.690
5.006,-0.985,-0.685
5.008,-0.975,-0.675
5.011,-0.955,-0.660
5.014,-0.970,-0.665
5.017,-0.940,-0.650
5.019,-0.925,-0.655
5.022,-0.940,-0.670
5.025,-0.960,-0.670
5.028,-0.950,-0.695
5.031,-0.950,-0.685
5.033,-0.975,-0.695
5.036,-0.965,-0.685
5.039,-0.960,-0.670
5.042,-0.960,-0.665
5.044,-0.925,-0.675
5.047,-0.900,-0.675
5.050,-0.860,-0.670
5.053,-0.790,-0.650
5.056,-0.705,-0.590
5.058,-0.605,-0.500
5.061,-0.495,-0.350
5.064,-0.355,-0.165
5.067,-0.230,0.050
5.069,-0.145,0.300
5.072,-0.110,0.565
5.075,-0.180,0.775
5.078,-0.310,0.925
5.081,-0.530,0.970
5.083,-0.770,0.875
5.086,-1.010,0.650
5.089,-1.280,0.315
5.092,-1.495,-0.065
5.094,-1.670,-0.455
5.097,-1.710,-0.785
5.100,-1.695,-0.995
5.103,-1.600,-1.050
5.106,-1.490,-0.990
5.108,-1.380,-0.885
5.111,-1.255,-0.765
5.114,-1.155,-0.725
5.117,-1.095,-0.675
5.119,-1.015,-0.660
5.122,-0.960,-0.645
5.125,-0.900,-0.645
5.128,-0.890,-0.640
5.131,-0.875,-0.645
5.133,-0.875,-0.645
5.136,-0.885,-0.640
5.139,-0.900,-0.655
5.142,-0.915,-0.640
5.144,-0.905,-0.635
5.147,-0.880,-0.630
5.150,-0.850,-0.625
5.153,-0.840,-0.625
5.156,-0.835,-0.625
5.158,-0.845,-0.625
5.161,-0.835,-0.625
5.164,-0.825,-0.635
5.167,-0.845,-0.625
5.169,-0.835,-0.620
5.172,-0.850,-0.615
5.175,-0.840,-0.595
5.178,-0.840,-0.575
5.181,-0.825,-0.575
5.183,-0.830,-0.560
5.186,-0.815,-0.580
5.189,-0.805,-0.570
5.192,-0.820,-0.575
5.194,-0.815,-0.600
5.197,-0.820,-0.600
5.200,-0.825,-0.590
5.203,-0.830,-0.595
5.206,-0.820,-0.585
5.208,-0.805,-0.565
5.211,-0.790,-0.535
5.214,-0.785,-0.545
5.217,-0.770,-0.520
5.219,-0.775,-0.510
5.222,-0.765,-0.515
5.225,-0.765,-0.515
5.228,-0.770,-0.535
5.231,-0.765,-0.530
5.233,-0.795,-0.540
5.236,-0.790,-0.530
5.239,-0.795,-0.545
5.242,-0.795,-0.500
5.244,-0.765,-0.490
5.247,-0.750,-0.495
5.250,-0.755,-0.465
5.253,-0.730,-0.490
5.256,-0.735,-0.475
5.258,-0.725,-0.475
5.261,-0.720,-0.465
5.264,-0.725,-0.490
5.267,-0.730,-0.475
5.269,-0.730,-0.480
5.272,-0.725,-0.460
5.275,-0.735,-0.445
5.278,-0.705,-0.420
5.281,-0.685,-0.395
5.283,-0.675,-0.370
5.286,-0.650,-0.370
5.289,-0.635,-0.370
5.292,-0.635,-0.350
5.294,-0.625,-0.360
5.297,-0.625,-0.345
5.300,-0.610,-0.325
5.303,-0.615,-0.320
5.306,-0.600,-0.305
5.308,-0.575,-0.280
5.311,-0.560,-0.250
5.314,-0.545,-0.235
5.317,-0.525,-0.200
5.319,-0.485,-0.195
5.322,-0.475,-0.170
5.325,-0.460,-0.150
5.328,-0.425,-0.150
5.331,-0.425,-0.140
5.333,-0.405,-0.140
5.336,-0.430,-0.105
5.339,-0.395,-0.090
5.342,-0.375,-0.070
5.344,-0.365,-0.035
5.347,-0.345,-0.015
5.350,-0.295,0.005
5.353,-0.265,0.045
5.356,-0.255,0.055
5.358,-0.245,0.050
5.361,-0.250,0.050
5.364,-0.260,0.075
5.367,-0.260,0.075
5.369,-0.270,0.080
5.372,-0.260,0.090
5.375,-0.260,0.110
5.378,-0.255,0.100
5.381,-0.260,0.110
5.383,-0.270,0.110
5.386,-0.260,0.090
5.389,-0.265,0.075
5.392,-0.290,0.055
5.394,-0.320,0.000
5.397,-0.345,-0.030
5.400,-0.390,-0.065
5.403,-0.405,-0.095
5.406,-0.455,-0.120
5.408,-0.490,-0.165
5.411,-0.510,-0.185
5.414,-0.530,-0.220
5.417,-0.570,-0.260
5.419,-0.600,-0.310
5.422,-0.620,-0.330
5.425,-0.650,-0.385
5.428,-0.690,-0.430
5.431,-0.715,-0.465
5.433,-0.755,-0.490
5.436,-0.765,-0.520
5.439,-0.790,-0.545
5.442,-0.810,-0.565
5.444,-0.815,-0.555
5.447,-0.820,-0.560
5.450,-0.810,-0.565
5.453,-0.820,-0.550
5.456,-0.840,-0.575
5.458,-0.855,-0.595
5.461,-0.860,-0.590
5.464,-0.880,-0.610
5.467,-0.885,-0.620
5.469,-0.890,-0.630
5.472,-0.895,-0.630
5.475,-0.895,-0.630
5.478,-0.895,-0.630
5.481,-0.890,-0.630
5.483,-0.880,-0.625
5.486,-0.885,-0.630
5.489,-0.885,-0.650
5.492,-0.870,-0.660
5.494,-0.880,-0.660
5.497,-0.895,-0.670
5.500,-0.900,-0.670
5.503,-0.890,-0.685
5.506,-0.905,-0.665
5.508,-0.915,-0.670
5.511,-0.915,-0.645
5.514,-0.885,-0.630
5.517,-0.895,-0.625
5.519,-0.875,-0.630
5.522,-0.900,-0.645
5.525,-0.915,-0.635
5.528,-0.910,-0.660
5.531,-0.910,-0.685
5.533,-0.905,-0.650
5.536,-0.910,-0.665
5.539,-0.910,-0.640
5.542,-0.925,-0.645
5.544,-0.910,-0.630
5.547,-0.895,-0.630
5.550,-0.895,-0.610
5.553,-0.890,-0.620
5.556,-0.880,-0.620
5.558,-0.895,-0.615
5.561,-0.890,-0.615
5.564,-0.900,-0.615
5.567,-0.905,-0.635
5.569,-0.915,-0.635
5.572,-0.925,-0.635
5.575,-0.925,-0.625
5.578,-0.910,-0.620
5.581,-0.895,-0.590
5.583,-0.895,-0.590
5.586,-0.870,-0.585
5.589,-0.885,-0.590
5.592,-0.885,-0.585
5.594,-0.905,-0.595
5.597,-0.920,-0.620
5.600,-0.930,-0.640
5.603,-0.920,-0.635
5.606,-0.935,-0.615
5.608,-0.945,-0.635
5.611,-0.935,-0.610
5.614,-0.955,-0.615
5.617,-0.930,-0.615
5.619,-0.920,-0.590
5.622,-0.930,-0.610
5.625,-0.945,-0.615
5.628,-0.950,-0.640
5.631,-0.960,-0.650
5.633,-0.980,-0.655
5.636,-0.975,-0.665
5.639,-0.975,-0.645
5.642,-0.990,-0.650
5.644,-0.970,-0.650
5.647,-0.965,-0.635
5.650,-0.960,-0.630
5.653,-0.945,-0.640
5.656,-0.955,-0.635
5.658,-0.950,-0.635
5.661,-0.985,-0.665
5.664,-1.000,-0.680
5.667,-1.015,-0.685
5.669,-1.000,-0.680
5.672,-1.000,-0.675
5.675,-0.990,-0.670
5.678,-0.995,-0.660
5.681,-0.980,-0.640
5.683,-0.975,-0.635
5.686,-0.970,-0.645
5.689,-0.960,-0.645
5.692,-0.965,-0.665
5.694,-0.985,-0.665
5.697,-1.000,-0.690
5.700,-1.005,-0.690
5.703,-1.010,-0.690
5.706,-1.015,-0.680
5.708,-1.015,-0.680
5.711,-1.010,-0.670
5.714,-1.000,-0.650
5.717,-0.990,-0.655
5.719,-0.990,-0.645
5.722,-0.980,-0.660
5.725,-0.975,-0.670
5.728,-0.985,-0.665
5.731,-0.980,-0.680
5.733,-0.995,-0.700
5.736,-1.005,-0.700
5.739,-1.025,-0.695
5.742,-1.025,-0.705
5.744,-1.005,-0.685
5.747,-1.010,-0.680
5.750,-0.990,-0.660
5.753,-0.990,-0.655
5.756,-0.980,-0.665
5.758,-1.000,-0.665
5.761,-1.005,-0.680
5.764,-1.015,-0.695
5.767,-1.030,-0.710
5.769,-1.025,-0.700
5.772,-1.020,-0.690
5.775,-1.025,-0.700
5.778,-1.010,-0.680
5.781,-1.010,-0.680
5.783,-0.995,-0.665
5.786,-1.000,-0.660
5.789,-1.020,-0.665
5.792,-1.020,-0.690
5.794,-1.035,-0.690
5.797,-1.025,-0.695
5.800,-1.030,-0.705
5.803,-1.055,-0.720
5.806,-1.055,-0.705
5.808,-1.055,-0.705
5.811,-1.035,-0.680
5.814,-1.010,-0.675
5.817,-1.005,-0.655
5.819,-1.000,-0.640
5.822,-1.010,-0.650
5.825,-1.000,-0.670
5.828,-1.005,-0.685
5.831,-1.030,-0.675
5.833,-1.025,-0.685
5.836,-1.035,-0.685
5.839,-1.035,-0.690
5.842,-1.030,-0.675
5.844,-1.025,-0.675
5.847,-1.025,-0.655
5.850,-1.015,-0.665
5.853,-1.020,-0.675
5.856,-1.020,-0.680
5.858,-1.010,-0.690
5.861,-1.015,-0.695
5.864,-1.035,-0.695
5.867,-1.045,-0.720
5.869,-1.040,-0.710
5.872,-1.030,-0.705
5.875,-1.040,-0.700
5.878,-1.040,-0.695
5.881,-1.030,-0.675
5.883,-1.020,-0.670
5.886,-1.010,-0.670
5.889,-0.995,-0.665
5.892,-1.000,-0.690
5.894,-1.005,-0.695
5.897,-1.035,-0.715
5.900,-1.060,-0.710
5.903,-1.045,-0.710
5.906,-1.045,-0.700
5.908,-1.040,-0.695
5.911,-1.025,-0.690
5.914,-1.030,-0.680
5.917,-1.010,-0.665
5.919,-1.000,-0.680
5.922,-1.005,-0.670
5.925,-1.015,-0.675
5.928,-1.005,-0.660
5.931,-1.020,-0.680
5.933,-1.025,-0.695
5.936,-1.015,-0.685
5.939,-1.030,-0.680
5.942,-1.020,-0.675
5.944,-1.025,-0.660
5.947,-1.020,-0.650
5.950,-1.025,-0.655
5.953,-1.000,-0.650
5.956,-1.010,-0.630
5.958,-1.010,-0.640
5.961,-0.995,-0.675
5.964,-1.005,-0.660
5.967,-1.010,-0.650
5.969,-1.010,-0.655
5.972,-1.025,-0.670
5.975,-1.030,-0.650
5.978,-1.015,-0.650
5.981,-1.020,-0.630
5.983,-1.005,-0.630
5.986,-0.990,-0.635
5.989,-0.995,-0.630
5.992,-0.985,-0.640
5.994,-1.010,-0.635
5.997,-1.005,-0.660
6.000,-1.005,-0.675
6.003,-1.020,-0.665
6.006,-1.030,-0.670
6.008,-1.015,-0.650
6.011,-1.005,-0.645
6.014,-0.990,-0.625
6.017,-0.970,-0.620
6.019,-0.970,-0.610
6.022,-0.965,-0.630
6.025,-0.970,-0.620
6.028,-0.940,-0.650
6.031,-0.925,-0.645
6.033,-0.925,-0.675
6.036,-0.930,-0.680
6.039,-0.940,-0.680
6.042,-0.940,-0.665
6.044,-0.935,-0.645
6.047,-0.915,-0.625
6.050,-0.895,-0.585
6.053,-0.870,-0.585
6.056,-0.860,-0.590
6.058,-0.830,-0.565
6.061,-0.840,-0.565
6.064,-0.840,-0.560
6.067,-0.845,-0.555
6.069,-0.840,-0.540
6.072,-0.855,-0.510
6.075,-0.865,-0.500
6.078,-0.870,-0.490
6.081,-0.865,-0.470
6.083,-0.860,-0.475
6.086,-0.865,-0.480
6.089,-0.875,-0.490
6.092,-0.875,-0.515
6.094,-0.895,-0.490
6.097,-0.930,-0.530
6.100,-0.960,-0.530
6.103,-1.005,-0.550
6.106,-1.010,-0.550
6.108,-1.015,-0.575
6.111,-1.040,-0.560
6.114,-1.025,-0.565
6.117,-1.010,-0.590
6.119,-1.015,-0.605
6.122,-1.005,-0.610
6.125,-1.010,-0.630
6.128,-1.015,-0.645
6.131,-1.030,-0.645
6.133,-1.040,-0.660
6.136,-1.045,-0.655
6.139,-1.060,-0.655
6.142,-1.060,-0.660
6.144,-1.065,-0.655
6.147,-1.065,-0.650
6.150,-1.045,-0.630
6.153,-1.030,-0.635
6.156,-1.030,-0.620
6.158,-1.015,-0.635
6.161,-1.020,-0.640
6.164,-1.030,-0.660
6.167,-1.030,-0.665
6.169,-1.030,-0.670
6.172,-1.040,-0.665
6.175,-1.040,-0.660
6.178,-1.035,-0.640
6.181,-1.025,-0.615
6.183,-1.015,-0.620
6.186,-1.000,-0.600
6.189,-0.985,-0.630
6.192,-0.995,-0.630
6.194,-0.975,-0.635
6.197,-0.960,-0.650
6.200,-0.885,-0.615
6.203,-0.800,-0.565
6.206,-0.710,-0.465
6.208,-0.600,-0.300
6.211,-0.445,-0.075
6.214,-0.300,0.170
6.217,-0.180,0.430
6.219,-0.130,0.680
6.222,-0.195,0.885
6.225,-0.360,1.020
6.228,-0.600,1.030
6.231,-0.885,0.935
6.233,-1.185,0.695
6.236,-1.455,0.355
6.239,-1.700,-0.060
6.242,-1.860,-0.500
6.244,-1.920,-0.885
6.247,-1.875,-1.145
6.250,-1.760,-1.210
6.253,-1.620,-1.125
6.256,-1.505,-0.995
6.258,-1.415,-0.885
6.261,-1.340,-0.805
6.264,-1.290,-0.785
6.267,-1.230,-0.760
6.269,-1.165,-0.735
6.272,-1.095,-0.700
6.275,-1.040,-0.655
6.278,-0.990,-0.630
6.281,-0.960,-0.620
6.283,-0.945,-0.600
6.286,-0.935,-0.605
6.289,-0.940,-0.605
6.292,-0.940,-0.625
6.294,-0.945,-0.625
6.297,-0.935,-0.625
6.300,-0.945,-0.635
6.303,-0.930,-0.625
6.306,-0.935,-0.610
6.308,-0.930,-0.620
6.311,-0.910,-0.585
6.314,-0.890,-0.585
6.317,-0.885,-0.565
6.319,-0.870,-0.565
6.322,-0.885,-0.575
6.325,-0.875,-0.570
6.328,-0.875,-0.575
6.331,-0.880,-0.585
6.333,-0.885,-0.580
6.336,-0.880,-0.575
6.339,-0.890,-0.570
6.342,-0.875,-0.560
6.344,-0.870,-0.550
6.347,-0.855,-0.550
6.350,-0.845,-0.530
6.353,-0.820,-0.545
6.356,-0.825,-0.525
6.358,-0.815,-0.515
6.361,-0.830,-0.520
6.364,-0.835,-0.540
6.367,-0.865,-0.535
6.369,-0.860,-0.545
6.372,-0.845,-0.510
6.375,-0.845,-0.515
6.378,-0.830,-0.510
6.381,-0.815,-0.485
6.383,-0.795,-0.470
6.386,-0.805,-0.465
6.389,-0.800,-0.460
6.392,-0.790,-0.470
6.394,-0.775,-0.465
6.397,-0.780,-0.470
6.400,-0.775,-0.465
6.403,-0.775,-0.460
6.406,-0.785,-0.445
6.408,-0.770,-0.440
6.411,-0.745,-0.420
6.414,-0.740,-0.400
6.417,-0.715,-0.390
6.419,-0.705,-0.395
6.422,-0.700,-0.390
6.425,-0.700,-0.365
6.428,-0.685,-0.375
6.431,-0.695,-0.355
6.433,-0.690,-0.360
6.436,-0.665,-0.355
6.439,-0.650,-0.335
6.442,-0.645,-0.310
6.444,-0.620,-0.275
6.447,-0.605,-0.260
6.450,-0.585,-0.245
6.453,-0.555,-0.230
6.456,-0.540,-0.205
6.458,-0.520,-0.205
6.461,-0.495,-0.195
6.464,-0.485,-0.190
6.467,-0.495,-0.190
6.469,-0.475,-0.180
6.472,-0.480,-0.150
6.475,-0.455,-0.130
6.478,-0.420,-0.090
6.481,-0.400,-0.090
6.483,-0.390,-0.030
6.486,-0.365,-0.035
6.489,-0.375,-0.015
6.492,-0.355,-0.025
6.494,-0.365,0.000
6.497,-0.335,0.005
6.500,-0.325,-0.005
6.503,-0.320,0.015
6.506,-0.305,0.030
6.508,-0.310,0.040
6.511,-0.295,0.050
6.514,-0.295,0.070
6.517,-0.295,0.080
6.519,-0.285,0.095
6.522,-0.280,0.090
6.525,-0.300,0.075
6.528,-0.305,0.070
6.531,-0.320,0.060
6.533,-0.305,0.035
6.536,-0.335,0.030
6.539,-0.340,0.025
6.542,-0.350,0.010
6.544,-0.365,0.005
6.547,-0.370,-0.020
6.550,-0.380,-0.055
6.553,-0.390,-0.085
6.556,-0.415,-0.125
6.558,-0.460,-0.150
6.561,-0.500,-0.195
6.564,-0.550,-0.230
6.567,-0.565,-0.285
6.569,-0.595,-0.320
6.572,-0.620,-0.350
6.575,-0.655,-0.375
6.578,-0.680,-0.385
6.581,-0.685,-0.410
6.583,-0.700,-0.445
6.586,-0.725,-0.480
6.589,-0.755,-0.490
6.592,-0.775,-0.510
6.594,-0.800,-0.565
6.597,-0.825,-0.580
6.600,-0.835,-0.620
6.603,-0.845,-0.620
6.606,-0.865,-0.645
6.608,-0.860,-0.640
6.611,-0.865,-0.630
6.614,-0.875,-0.640
6.617,-0.880,-0.645
6.619,-0.865,-0.655
6.622,-0.880,-0.665
6.625,-0.900,-0.670
6.628,-0.905,-0.700
6.631,-0.915,-0.700
6.633,-0.910,-0.725
6.636,-0.920,-0.720
6.639,-0.920,-0.725
6.642,-0.915,-0.705
6.644,-0.900,-0.710
6.647,-0.900,-0.705
6.650,-0.895,-0.695
6.653,-0.890,-0.695
6.656,-0.895,-0.695
6.658,-0.895,-0.695
6.661,-0.900,-0.720
6.664,-0.900,-0.715
6.667,-0.910,-0.740
6.669,-0.915,-0.745
6.672,-0.925,-0.745
6.675,-0.910,-0.735
6.678,-0.915,-0.715
6.681,-0.900,-0.715
6.683,-0.885,-0.705
6.686,-0.865,-0.685
6.689,-0.875,-0.695
6.692,-0.875,-0.690
6.694,-0.885,-0.705
6.697,-0.900,-0.710
6.700,-0.900,-0.725
6.703,-0.900,-0.725
6.706,-0.910,-0.700
6.708,-0.925,-0.710
6.711,-0.890,-0.695
6.714,-0.895,-0.685
6.717,-0.875,-0.685
6.719,-0.885,-0.670
6.722,-0.890,-0.680
6.725,-0.895,-0.675
6.728,-0.890,-0.695
6.731,-0.900,-0.695
6.733,-0.910,-0.705
6.736,-0.915,-0.700
6.739,-0.930,-0.705
6.742,-0.905,-0.680
6.744,-0.915,-0.685
6.747,-0.900,-0.665
6.750,-0.895,-0.660
6.753,-0.890,-0.665
6.756,-0.890,-0.670
6.758,-0.895,-0.675
6.761,-0.900,-0.680
6.764,-0.930,-0.690
6.767,-0.935,-0.700
6.769,-0.945,-0.705
6.772,-0.950,-0.700
6.775,-0.965,-0.705
6.778,-0.960,-0.700
6.781,-0.950,-0.680
6.783,-0.935,-0.670
6.786,-0.905,-0.675
6.789,-0.920,-0.675
6.792,-0.920,-0.695
6.794,-0.930,-0.710
6.797,-0.950,-0.730
6.800,-0.950,-0.730
6.803,-0.965,-0.725
6.806,-0.980,-0.735
6.808,-0.965,-0.740
6.811,-0.960,-0.720
6.814,-0.965,-0.730
6.817,-0.940,-0.720
6.819,-0.940,-0.725
6.822,-0.945,-0.730
6.825,-0.940,-0.740
6.828,-0.950,-0.750
6.831,-0.970,-0.760
6.833,-0.970,-0.760
6.836,-0.980,-0.770
6.839,-0.990,-0.770
6.842,-0.980,-0.750
6.844,-0.970,-0.740
6.847,-0.970,-0.750
6.850,-0.960,-0.730
6.853,-0.950,-0.740
6.856,-0.955,-0.735
6.858,-0.955,-0.735
6.861,-0.975,-0.755
6.864,-0.990,-0.780
6.867,-0.990,-0.775
6.869,-0.995,-0.775
6.872,-0.995,-0.770
6.875,-0.990,-0.785
6.878,-0.990,-0.780
6.881,-0.980,-0.755
6.883,-0.980,-0.760
6.886,-0.980,-0.765
6.889,-0.970,-0.765
6.892,-0.965,-0.760
6.894,-0.970,-0.770
6.897,-0.980,-0.790
6.900,-0.990,-0.795
6.903,-0.980,-0.800
6.906,-0.985,-0.785
6.908,-1.000,-0.790
6.911,-1.010,-0.775
6.914,-0.985,-0.745
6.917,-0.975,-0.765
6.919,-0.970,-0.745
6.922,-0.975,-0.755
6.925,-0.980,-0.755
6.928,-0.995,-0.770
6.931,-0.990,-0.780
6.933,-1.005,-0.775
6.936,-0.990,-0.765
6.939,-1.005,-0.750
6.942,-1.010,-0.755
6.944,-0.980,-0.740
6.947,-0.980,-0.740
6.950,-0.980,-0.700
6.953,-0.965,-0.720
6.956,-0.965,-0.700
6.958,-0.970,-0.715
6.961,-0.980,-0.735
6.964,-0.980,-0.755
6.967,-0.985,-0.750
6.969,-0.980,-0.750
6.972,-1.000,-0.740
6.975,-0.990,-0.730
6.978,-0.990,-0.745
6.981,-0.985,-0.730
6.983,-0.960,-0.705
6.986,-0.945,-0.720
6.989,-0.955,-0.710
6.992,-0.975,-0.725
6.994,-0.980,-0.740
6.997,-0.975,-0.735
7.000,-0.985,-0.750
7.003,-0.990,-0.755
7.006,-1.005,-0.740
7.008,-1.010,-0.735
7.011,-1.005,-0.720
7.014,-0.990,-0.715
7.017,-0.980,-0.715
7.019,-0.970,-0.715
7.022,-0.975,-0.710
7.025,-0.995,-0.720
7.028,-0.980,-0.735
7.031,-0.980,-0.725
7.033,-0.990,-0.750
7.036,-0.995,-0.745
7.039,-0.995,-0.730
7.042,-0.990,-0.735
7.044,-0.985,-0.725
7.047,-0.980,-0.715
7.050,-0.970,-0.710
7.053,-0.965,-0.700
7.056,-0.970,-0.710
7.058,-0.985,-0.720
7.061,-0.980,-0.720
7.064,-0.990,-0.725
7.067,-1.000,-0.740
7.069,-1.000,-0.750
7.072,-0.995,-0.725
7.075,-0.995,-0.740
7.078,-0.985,-0.730
7.081,-0.965,-0.715
7.083,-0.960,-0.715
7.086,-0.945,-0.715
7.089,-0.945,-0.720
7.092,-0.950,-0.720
7.094,-0.960,-0.720
7.097,-0.965,-0.745
7.100,-0.980,-0.760
7.103,-0.975,-0.745
7.106,-0.990,-0.740
7.108,-0.980,-0.765
7.111,-0.980,-0.740
7.114,-0.985,-0.730
7.117,-0.970,-0.725
7.119,-0.980,-0.720
7.122,-0.960,-0.725
7.125,-0.960,-0.705
7.128,-0.950,-0.725
7.131,-0.975,-0.730
7.133,-0.975,-0.745
7.136,-0.980,-0.730
7.139,-0.975,-0.720
7.142,-0.985,-0.715
7.144,-0.975,-0.705
7.147,-0.960,-0.690
7.150,-0.955,-0.690
7.153,-0.955,-0.695
7.156,-0.950,-0.690
7.158,-0.955,-0.705
7.161,-0.960,-0.720
7.164,-0.965,-0.720
7.167,-0.960,-0.730
7.169,-0.970,-0.715
7.172,-1.000,-0.715
7.175,-0.985,-0.700
7.178,-0.960,-0.695
7.181,-0.955,-0.680
7.183,-0.945,-0.680
7.186,-0.940,-0.680
7.189,-0.945,-0.690
7.192,-0.930,-0.680
7.194,-0.945,-0.705
7.197,-0.965,-0.700
7.200,-0.960,-0.705
7.203,-0.965,-0.705
7.206,-0.975,-0.700
7.208,-0.955,-0.680
7.211,-0.950,-0.670
7.214,-0.935,-0.660
7.217,-0.920,-0.650
7.219,-0.900,-0.655
7.222,-0.885,-0.650
7.225,-0.870,-0.670
7.228,-0.860,-0.675
7.231,-0.860,-0.695
7.233,-0.850,-0.715
7.236,-0.860,-0.715
7.239,-0.865,-0.695
7.242,-0.870,-0.670
7.244,-0.850,-0.640
7.247,-0.845,-0.625
7.250,-0.800,-0.595
7.253,-0.780,-0.585
7.256,-0.770,-0.585
7.258,-0.780,-0.580
7.261,-0.790,-0.580
7.264,-0.780,-0.570
7.267,-0.795,-0.560
7.269,-0.795,-0.540
7.272,-0.825,-0.535
7.275,-0.840,-0.530
7.278,-0.830,-0.515
7.281,-0.825,-0.515
7.283,-0.840,-0.505
7.286,-0.835,-0.500
7.289,-0.850,-0.525
7.292,-0.855,-0.520
7.294,-0.865,-0.540
7.297,-0.890,-0.560
7.300,-0.915,-0.585
7.303,-0.935,-0.600
7.306,-0.965,-0.620
7.308,-0.965,-0.610
7.311,-0.970,-0.620
7.314,-0.970,-0.640
7.317,-0.970,-0.630
7.319,-0.950,-0.640
7.322,-0.960,-0.665
7.325,-0.945,-0.680
7.328,-0.955,-0.675
7.331,-0.965,-0.675
7.333,-0.990,-0.700
7.336,-1.010,-0.695
7.339,-1.005,-0.695
7.342,-1.010,-0.695
7.344,-1.010,-0.680
7.347,-1.010,-0.680
7.350,-0.990,-0.665
7.353,-0.980,-0.680
7.356,-0.990,-0.680
7.358,-0.965,-0.685
7.361,-0.965,-0.700
7.364,-0.975,-0.700
7.367,-0.980,-0.705
7.369,-0.985,-0.705
7.372,-0.975,-0.710
7.375,-0.965,-0.675
7.378,-0.950,-0.670
7.381,-0.955,-0.665
7.383,-0.950,-0.645
7.386,-0.930,-0.645
7.389,-0.890,-0.670
7.392,-0.870,-0.670
7.394,-0.805,-0.640
7.397,-0.725,-0.595
7.400,-0.595,-0.470
7.403,-0.465,-0.275
7.406,-0.315,-0.025
7.408,-0.165,0.265
7.411,-0.090,0.560
7.414,-0.090,0.825
7.417,-0.205,1.020
7.419,-0.400,1.135
7.422,-0.645,1.050
7.425,-0.925,0.835
7.428,-1.200,0.500
7.431,-1.455,0.130
7.433,-1.645,-0.280
7.436,-1.715,-0.630
7.439,-1.695,-0.860
7.442,-1.600,-0.950
7.444,-1.475,-0.885
7.447,-1.345,-0.795
7.450,-1.240,-0.690
7.453,-1.150,-0.640
7.456,-1.075,-0.630
7.458,-1.015,-0.605
7.461,-0.955,-0.620
7.464,-0.925,-0.625
7.467,-0.910,-0.625
7.469,-0.900,-0.635
7.472,-0.920,-0.650
7.475,-0.915,-0.620
7.478,-0.910,-0.625
7.481,-0.910,-0.615
7.483,-0.905,-0.620
7.486,-0.885,-0.615
7.489,-0.875,-0.615
7.492,-0.865,-0.625
7.494,-0.870,-0.605
7.497,-0.865,-0.635
7.500,-0.880,-0.630
7.503,-0.885,-0.635
7.506,-0.880,-0.615
7.508,-0.875,-0.610
7.511,-0.865,-0.605
7.514,-0.855,-0.595
7.517,-0.850,-0.575
7.519,-0.825,-0.545
7.522,-0.835,-0.570
7.525,-0.845,-0.580
7.528,-0.850,-0.575
7.531,-0.835,-0.575
7.533,-0.840,-0.585
7.536,-0.840,-0.580
7.539,-0.840,-0.590
7.542,-0.855,-0.565
7.544,-0.830,-0.545
7.547,-0.820,-0.525
7.550,-0.810,-0.520
7.553,-0.805,-0.525
7.556,-0.810,-0.510
7.558,-0.795,-0.515
7.561,-0.805,-0.525
7.564,-0.800,-0.545
7.567,-0.790,-0.530
7.569,-0.800,-0.540
7.572,-0.790,-0.525
7.575,-0.800,-0.505
7.578,-0.775,-0.480
7.581,-0.770,-0.470
7.583,-0.760,-0.465
7.586,-0.740,-0.465
7.589,-0.740,-0.455
7.592,-0.745,-0.455
7.594,-0.755,-0.460
7.597,-0.740,-0.460
7.600,-0.735,-0.455
7.603,-0.735,-0.455
7.606,-0.735,-0.440
7.608,-0.725,-0.420
7.611,-0.690,-0.395
7.614,-0.685,-0.400
7.617,-0.675,-0.370
7.619,-0.660,-0.360
7.622,-0.635,-0.340
7.625,-0.620,-0.350
7.628,-0.615,-0.335
7.631,-0.615,-0.325
7.633,-0.610,-0.330
7.636,-0.595,-0.325
7.639,-0.585,-0.285
7.642,-0.580,-0.275
7.644,-0.545,-0.255
7.647,-0.510,-0.225
7.650,-0.485,-0.215
7.653,-0.470,-0.195
7.656,-0.465,-0.175
7.658,-0.460,-0.155
7.661,-0.445,-0.145
7.664,-0.415,-0.140
7.667,-0.405,-0.120
7.669,-0.400,-0.125
7.672,-0.385,-0.100
7.675,-0.360,-0.075
7.678,-0.350,-0.045
7.681,-0.320,-0.020
7.683,-0.305,0.010
7.686,-0.270,0.025
7.689,-0.255,0.035
7.692,-0.240,0.040
7.694,-0.235,0.055
7.697,-0.235,0.055
7.700,-0.245,0.040
7.703,-0.230,0.035
7.706,-0.230,0.060
7.708,-0.230,0.075
7.711,-0.220,0.080
7.714,-0.205,0.125
7.717,-0.210,0.150
7.719,-0.200,0.140
7.722,-0.215,0.110
7.725,-0.220,0.105
7.728,-0.235,0.075
7.731,-0.255,0.065
7.733,-0.305,0.025
7.736,-0.320,0.000
7.739,-0.360,-0.030
7.742,-0.390,-0.045
7.744,-0.405,-0.080
7.747,-0.445,-0.110
7.750,-0.455,-0.120
7.753,-0.470,-0.165
7.756,-0.500,-0.200
7.758,-0.550,-0.230
7.761,-0.575,-0.290
7.764,-0.620,-0.330
7.767,-0.675,-0.365
7.769,-0.675,-0.395
7.772,-0.710,-0.430
7.775,-0.750,-0.445
7.778,-0.760,-0.455
7.781,-0.765,-0.470
7.783,-0.780,-0.470
7.786,-0.785,-0.495
7.789,-0.800,-0.515
7.792,-0.815,-0.540
7.794,-0.840,-0.560
7.797,-0.835,-0.580
7.800,-0.865,-0.595
7.803,-0.890,-0.605
7.806,-0.905,-0.605
7.808,-0.895,-0.600
7.811,-0.885,-0.605
7.814,-0.885,-0.600
7.817,-0.885,-0.590
7.819,-0.870,-0.605
7.822,-0.885,-0.605
7.825,-0.885,-0.615
7.828,-0.885,-0.625
7.831,-0.900,-0.625
7.833,-0.910,-0.655
7.836,-0.925,-0.655
7.839,-0.900,-0.650
7.842,-0.905,-0.650
7.844,-0.900,-0.630
7.847,-0.895,-0.640
7.850,-0.890,-0.630
7.853,-0.875,-0.615
7.856,-0.875,-0.640
7.858,-0.895,-0.635
7.861,-0.895,-0.635
7.864,-0.900,-0.635
7.867,-0.910,-0.660
7.869,-0.905,-0.665
7.872,-0.920,-0.645
7.875,-0.915,-0.655
7.878,-0.900,-0.645
7.881,-0.895,-0.625
7.883,-0.885,-0.620
7.886,-0.865,-0.615
7.889,-0.875,-0.620
7.892,-0.865,-0.625
7.894,-0.860,-0.640
7.897,-0.880,-0.640
7.900,-0.875,-0.650
7.903,-0.895,-0.645
7.906,-0.895,-0.635
7.908,-0.885,-0.650
7.911,-0.890,-0.615
7.914,-0.870,-0.605
7.917,-0.870,-0.590
7.919,-0.850,-0.600
7.922,-0.860,-0.595
7.925,-0.875,-0.600
7.928,-0.875,-0.600
7.931,-0.875,-0.625
7.933,-0.905,-0.620
7.936,-0.890,-0.635
7.939,-0.910,-0.630
7.942,-0.910,-0.630
7.944,-0.910,-0.620
7.947,-0.890,-0.635
7.950,-0.890,-0.605
7.953,-0.890,-0.600
7.956,-0.885,-0.615
7.958,-0.885,-0.605
7.961,-0.895,-0.630
7.964,-0.900,-0.635
7.967,-0.930,-0.655
7.969,-0.945,-0.650
7.972,-0.950,-0.650
7.975,-0.950,-0.640
7.978,-0.945,-0.635
7.981,-0.940,-0.630
7.983,-0.925,-0.620
7.986,-0.910,-0.610
7.989,-0.905,-0.630
7.992,-0.935,-0.635
7.994,-0.935,-0.655
7.997,-0.945,-0.650
8.000,-0.965,-0.675
8.003,-0.965,-0.685
8.006,-0.965,-0.670
8.008,-0.965,-0.650
8.011,-0.955,-0.650
8.014,-0.955,-0.635
8.017,-0.950,-0.645
8.019,-0.940,-0.640
8.022,-0.930,-0.635
8.025,-0.940,-0.650
8.028,-0.945,-0.670
8.031,-0.960,-0.680
8.033,-0.955,-0.680
8.036,-0.960,-0.690
8.039,-0.960,-0.705
8.042,-0.960,-0.670
8.044,-0.970,-0.665
8.047,-0.955,-0.640
8.050,-0.960,-0.655
8.053,-0.940,-0.645
8.056,-0.940,-0.650
8.058,-0.930,-0.655
8.061,-0.940,-0.670
8.064,-0.950,-0.685
8.067,-0.975,-0.680
8.069,-0.975,-0.700
8.072,-0.980,-0.680
8.075,-0.970,-0.665
8.078,-0.960,-0.665
8.081,-0.950,-0.660
8.083,-0.935,-0.655
8.086,-0.930,-0.630
8.089,-0.925,-0.645
8.092,-0.925,-0.650
8.094,-0.940,-0.660
8.097,-0.950,-0.670
8.100,-0.945,-0.675
8.103,-0.955,-0.680
8.106,-0.960,-0.675
8.108,-0.960,-0.650
8.111,-0.950,-0.640
8.114,-0.950,-0.645
8.117,-0.950,-0.620
8.119,-0.940,-0.635
8.122,-0.945,-0.630
8.125,-0.950,-0.650
8.128,-0.945,-0.655
8.131,-0.950,-0.675
8.133,-0.955,-0.680
8.136,-0.955,-0.670
8.139,-0.965,-0.650
8.142,-0.960,-0.665
8.144,-0.965,-0.650
8.147,-0.960,-0.645
8.150,-0.950,-0.650
8.153,-0.940,-0.625
8.156,-0.940,-0.635
8.158,-0.945,-0.640
8.161,-0.945,-0.655
8.164,-0.955,-0.675
8.167,-0.960,-0.685
8.169,-0.970,-0.690
8.172,-0.975,-0.700
8.175,-0.955,-0.680
8.178,-0.955,-0.665
8.181,-0.950,-0.665
8.183,-0.945,-0.650
8.186,-0.940,-0.655
8.189,-0.940,-0.650
8.192,-0.940,-0.655
8.194,-0.940,-0.680
8.197,-0.935,-0.665
8.200,-0.970,-0.675
8.203,-0.960,-0.680
8.206,-0.960,-0.680
8.208,-0.960,-0.650
8.211,-0.965,-0.650
8.214,-0.960,-0.640
8.217,-0.935,-0.650
8.219,-0.935,-0.630
8.222,-0.935,-0.630
8.225,-0.930,-0.650
8.228,-0.925,-0.655
8.231,-0.935,-0.675
8.233,-0.940,-0.660
8.236,-0.960,-0.675
8.239,-0.970,-0.670
8.242,-0.970,-0.660
8.244,-0.940,-0.655
8.247,-0.940,-0.655
8.250,-0.935,-0.645
8.253,-0.920,-0.645
8.256,-0.915,-0.640
8.258,-0.920,-0.635
8.261,-0.930,-0.650
8.264,-0.945,-0.670
8.267,-0.955,-0.670
8.269,-0.930,-0.675
8.272,-0.945,-0.670
8.275,-0.955,-0.655
8.278,-0.940,-0.645
8.281,-0.935,-0.640
8.283,-0.920,-0.640
8.286,-0.905,-0.635
8.289,-0.925,-0.615
8.292,-0.940,-0.625
8.294,-0.925,-0.625
8.297,-0.930,-0.645
8.300,-0.940,-0.655
8.303,-0.940,-0.660
8.306,-0.960,-0.645
8.308,-0.965,-0.640
8.311,-0.950,-0.645
8.314,-0.925,-0.625
8.317,-0.930,-0.620
8.319,-0.915,-0.630
8.322,-0.920,-0.635
8.325,-0.930,-0.635
8.328,-0.925,-0.645
8.331,-0.945,-0.660
8.333,-0.935,-0.645
8.336,-0.935,-0.640
8.339,-0.950,-0.650
8.342,-0.950,-0.640
8.344,-0.945,-0.620
8.347,-0.935,-0.625
8.350,-0.910,-0.615
8.353,-0.910,-0.610
8.356,-0.915,-0.625
8.358,-0.920,-0.625
8.361,-0.915,-0.630
8.364,-0.930,-0.640
8.367,-0.925,-0.650
8.369,-0.935,-0.645
8.372,-0.935,-0.630
8.375,-0.945,-0.625
8.378,-0.940,-0.625
8.381,-0.925,-0.610
8.383,-0.920,-0.620
8.386,-0.905,-0.605
8.389,-0.910,-0.600
8.392,-0.930,-0.610
8.394,-0.910,-0.610
8.397,-0.920,-0.625
8.400,-0.935,-0.645
8.403,-0.925,-0.650
8.406,-0.910,-0.625
8.408,-0.905,-0.620
8.411,-0.880,-0.625
8.414,-0.865,-0.620
8.417,-0.835,-0.620
8.419,-0.820,-0.605
8.422,-0.820,-0.610
8.425,-0.810,-0.600
8.428,-0.825,-0.595
8.431,-0.820,-0.590
8.433,-0.815,-0.590
8.436,-0.810,-0.585
8.439,-0.785,-0.565
8.442,-0.765,-0.540
8.444,-0.760,-0.530
8.447,-0.755,-0.515
8.450,-0.755,-0.480
8.453,-0.755,-0.455
8.456,-0.740,-0.440
8.458,-0.755,-0.440
8.461,-0.770,-0.435
8.464,-0.790,-0.460
8.467,-0.805,-0.470
8.469,-0.830,-0.470
8.472,-0.845,-0.470
8.475,-0.840,-0.485
8.478,-0.850,-0.455
8.481,-0.865,-0.455
8.483,-0.870,-0.460
8.486,-0.895,-0.450
8.489,-0.900,-0.490
8.492,-0.895,-0.520
8.494,-0.915,-0.540
8.497,-0.925,-0.565
8.500,-0.935,-0.575
8.503,-0.960,-0.600
8.506,-0.965,-0.610
8.508,-0.950,-0.595
8.511,-0.955,-0.590
8.514,-0.955,-0.590
8.517,-0.940,-0.580
8.519,-0.960,-0.590
8.522,-0.970,-0.600
8.525,-0.970,-0.605
8.528,-0.955,-0.615
8.531,-0.970,-0.620
8.533,-0.975,-0.635
8.536,-0.980,-0.645
8.539,-0.985,-0.645
8.542,-0.990,-0.640
8.544,-0.975,-0.635
8.547,-0.965,-0.625
8.550,-0.965,-0.615
8.553,-0.945,-0.625
8.556,-0.925,-0.630
8.558,-0.920,-0.620
8.561,-0.925,-0.645
8.564,-0.925,-0.650
8.567,-0.945,-0.635
8.569,-0.955,-0.635
8.572,-0.940,-0.630
8.575,-0.930,-0.620
8.578,-0.890,-0.605
8.581,-0.810,-0.570
8.583,-0.735,-0.510
8.586,-0.630,-0.410
8.589,-0.500,-0.250
8.592,-0.355,-0.045
8.594,-0.235,0.200
8.597,-0.130,0.460
8.600,-0.120,0.705
8.603,-0.205,0.885
8.606,-0.385,1.000
8.608,-0.640,0.985
8.611,-0.925,0.815
8.614,-1.205,0.540
8.617,-1.480,0.155
8.619,-1.665,-0.275
8.622,-1.760,-0.670
8.625,-1.750,-0.960
8.628,-1.670,-1.065
8.631,-1.545,-1.040
8.633,-1.430,-0.935
8.636,-1.320,-0.825
8.639,-1.230,-0.745
8.642,-1.130,-0.685
8.644,-1.065,-0.635
8.647,-0.985,-0.605
8.650,-0.940,-0.575
8.653,-0.905,-0.565
8.656,-0.895,-0.560
8.658,-0.895,-0.555
8.661,-0.905,-0.555
8.664,-0.915,-0.575
8.667,-0.920,-0.575
8.669,-0.925,-0.590
8.672,-0.910,-0.580
8.675,-0.905,-0.585
8.678,-0.880,-0.560
8.681,-0.865,-0.530
8.683,-0.855,-0.525
8.686,-0.835,-0.505
8.689,-0.825,-0.525
8.692,-0.845,-0.525
8.694,-0.830,-0.535
8.697,-0.845,-0.525
8.700,-0.830,-0.540
8.703,-0.840,-0.530
8.706,-0.830,-0.515
8.708,-0.840,-0.535
8.711,-0.830,-0.505
8.714,-0.820,-0.505
8.717,-0.820,-0.485
8.719,-0.820,-0.485
8.722,-0.800,-0.480
8.725,-0.800,-0.485
8.728,-0.800,-0.500
8.731,-0.790,-0.505
8.733,-0.805,-0.505
8.736,-0.800,-0.485
8.739,-0.815,-0.485
8.742,-0.800,-0.480
8.744,-0.800,-0.460
8.747,-0.795,-0.460
8.750,-0.780,-0.455
8.753,-0.770,-0.435
8.756,-0.765,-0.445
8.758,-0.770,-0.440
8.761,-0.770,-0.440
8.764,-0.775,-0.430
8.767,-0.775,-0.450
8.769,-0.770,-0.460
8.772,-0.775,-0.430
8.775,-0.765,-0.420
8.778,-0.760,-0.400
8.781,-0.735,-0.405
8.783,-0.715,-0.385
8.786,-0.710,-0.365
8.789,-0.675,-0.335
8.792,-0.680,-0.355
8.794,-0.680,-0.340
8.797,-0.675,-0.345
8.800,-0.680,-0.355
8.803,-0.670,-0.340
8.806,-0.670,-0.330
8.808,-0.645,-0.310
8.811,-0.630,-0.285
8.814,-0.610,-0.255
8.817,-0.575,-0.240
8.819,-0.560,-0.200
8.822,-0.555,-0.190
8.825,-0.525,-0.175
8.828,-0.510,-0.175
8.831,-0.510,-0.155
8.833,-0.500,-0.155
8.836,-0.490,-0.145
8.839,-0.465,-0.110
8.842,-0.445,-0.090
8.844,-0.430,-0.055
8.847,-0.400,-0.030
8.850,-0.380,0.005
8.853,-0.355,0.025
8.856,-0.335,0.050
8.858,-0.315,0.060
8.861,-0.310,0.070
8.864,-0.295,0.080
8.867,-0.290,0.085
8.869,-0.290,0.115
8.872,-0.285,0.125
8.875,-0.275,0.155
8.878,-0.235,0.160
8.881,-0.235,0.180
8.883,-0.220,0.205
8.886,-0.195,0.200
8.889,-0.180,0.195
8.892,-0.170,0.200
8.894,-0.185,0.200
8.897,-0.180,0.190
8.900,-0.200,0.195
8.903,-0.195,0.175
8.906,-0.230,0.165
8.908,-0.240,0.190
8.911,-0.235,0.170
8.914,-0.260,0.160
8.917,-0.270,0.160
8.919,-0.280,0.135
8.922,-0.305,0.105
8.925,-0.320,0.070
8.928,-0.360,0.030
8.931,-0.385,-0.025
8.933,-0.420,-0.060
8.936,-0.460,-0.095
8.939,-0.505,-0.125
8.942,-0.520,-0.160
8.944,-0.555,-0.190
8.947,-0.600,-0.210
8.950,-0.620,-0.240
8.953,-0.635,-0.280
8.956,-0.670,-0.325
8.958,-0.680,-0.360
8.961,-0.710,-0.405
8.964,-0.735,-0.405
8.967,-0.750,-0.455
8.969,-0.770,-0.455
8.972,-0.820,-0.480
8.975,-0.805,-0.485
8.978,-0.810,-0.490
8.981,-0.820,-0.500
8.983,-0.830,-0.490
8.986,-0.820,-0.480
8.989,-0.825,-0.495
8.992,-0.835,-0.520
8.994,-0.855,-0.540
8.997,-0.870,-0.565
9.000,-0.865,-0.560
9.003,-0.870,-0.585
9.006,-0.885,-0.585
9.008,-0.885,-0.590
9.011,-0.885,-0.565
9.014,-0.890,-0.570
9.017,-0.885,-0.570
9.019,-0.875,-0.545
9.022,-0.865,-0.550
9.025,-0.870,-0.580
9.028,-0.865,-0.575
9.031,-0.880,-0.610
9.033,-0.890,-0.610
9.036,-0.885,-0.595
9.039,-0.885,-0.610
9.042,-0.890,-0.595
9.044,-0.890,-0.590
9.047,-0.875,-0.565
9.050,-0.870,-0.575
9.053,-0.855,-0.565
9.056,-0.850,-0.570
9.058,-0.865,-0.555
9.061,-0.870,-0.565
9.064,-0.870,-0.560
9.067,-0.865,-0.580
9.069,-0.875,-0.555
9.072,-0.875,-0.555
9.075,-0.860,-0.550
9.078,-0.860,-0.535
9.081,-0.845,-0.540
9.083,-0.850,-0.530
9.086,-0.835,-0.525
9.089,-0.845,-0.530
9.092,-0.840,-0.540
9.094,-0.855,-0.535
9.097,-0.870,-0.550
9.100,-0.870,-0.540
9.103,-0.880,-0.550
9.106,-0.880,-0.560
9.108,-0.875,-0.520
9.111,-0.865,-0.530
9.114,-0.860,-0.525
9.117,-0.850,-0.520
9.119,-0.845,-0.510
9.122,-0.850,-0.520
9.125,-0.845,-0.520
9.128,-0.865,-0.540
9.131,-0.870,-0.555
9.133,-0.885,-0.550
9.136,-0.900,-0.555
9.139,-0.915,-0.570
9.142,-0.895,-0.575
9.144,-0.900,-0.565
9.147,-0.910,-0.550
9.150,-0.905,-0.535
9.153,-0.885,-0.535
9.156,-0.900,-0.540
9.158,-0.915,-0.540
9.161,-0.895,-0.560
9.164,-0.900,-0.575
9.167,-0.915,-0.575
9.169,-0.945,-0.570
9.172,-0.930,-0.580
9.175,-0.935,-0.580
9.178,-0.935,-0.580
9.181,-0.920,-0.570
9.183,-0.915,-0.570
9.186,-0.915,-0.550
9.189,-0.910,-0.575
9.192,-0.915,-0.585
9.194,-0.910,-0.580
9.197,-0.930,-0.580
9.200,-0.945,-0.605
9.203,-0.960,-0.605
9.206,-0.950,-0.635
9.208,-0.945,-0.590
9.211,-0.930,-0.580
9.214,-0.930,-0.585
9.217,-0.915,-0.555
9.219,-0.910,-0.550
9.222,-0.900,-0.585
9.225,-0.895,-0.580
9.228,-0.905,-0.595
9.231,-0.920,-0.595
9.233,-0.935,-0.615
9.236,-0.980,-0.600
9.239,-0.955,-0.630
9.242,-0.980,-0.610
9.244,-0.965,-0.590
9.247,-0.960,-0.580
9.250,-0.960,-0.565
9.253,-0.935,-0.560
9.256,-0.940,-0.565
9.258,-0.945,-0.565
9.261,-0.930,-0.585
9.264,-0.945,-0.590
9.267,-0.965,-0.605
9.269,-0.970,-0.605
9.272,-0.955,-0.615
9.275,-0.975,-0.600
9.278,-0.950,-0.590
9.281,-0.945,-0.590
9.283,-0.930,-0.575
9.286,-0.925,-0.575
9.289,-0.920,-0.570
9.292,-0.935,-0.590
9.294,-0.945,-0.585
9.297,-0.950,-0.590
9.300,-0.950,-0.605
9.303,-0.955,-0.600
9.306,-0.965,-0.600
9.308,-0.960,-0.595
9.311,-0.955,-0.570
9.314,-0.945,-0.580
9.317,-0.930,-0.570
9.319,-0.925,-0.560
9.322,-0.930,-0.575
9.325,-0.940,-0.560
9.328,-0.960,-0.570
9.331,-0.960,-0.585
9.333,-0.950,-0.575
9.336,-0.975,-0.600
9.339,-0.970,-0.590
9.342,-0.965,-0.600
9.344,-0.965,-0.575
9.347,-0.960,-0.585
9.350,-0.960,-0.575
9.353,-0.945,-0.555
9.356,-0.940,-0.560
9.358,-0.945,-0.565
9.361,-0.935,-0.585
9.364,-0.940,-0.580
9.367,-0.955,-0.585
9.369,-0.965,-0.600
9.372,-0.970,-0.595
9.375,-0.960,-0.600
9.378,-0.950,-0.585
9.381,-0.950,-0.575
9.383,-0.935,-0.570
9.386,-0.930,-0.565
9.389,-0.935,-0.585
9.392,-0.935,-0.570
9.394,-0.945,-0.580
9.397,-0.965,-0.595
9.400,-0.945,-0.605
9.403,-0.965,-0.605
9.406,-0.970,-0.600
9.408,-0.955,-0.590
9.411,-0.950,-0.595
9.414,-0.950,-0.575
9.417,-0.935,-0.590
9.419,-0.910,-0.575
9.422,-0.910,-0.585
9.425,-0.915,-0.580
9.428,-0.925,-0.585
9.431,-0.930,-0.590
9.433,-0.935,-0.590
9.436,-0.980,-0.595
9.439,-0.965,-0.610
9.442,-0.955,-0.590
9.444,-0.965,-0.600
9.447,-0.950,-0.585
9.450,-0.950,-0.565
9.453,-0.960,-0.560
9.456,-0.940,-0.560
9.458,-0.935,-0.570
9.461,-0.940,-0.570
9.464,-0.945,-0.570
9.467,-0.935,-0.580
9.469,-0.960,-0.585
9.472,-0.960,-0.585
9.475,-0.960,-0.590
9.478,-0.960,-0.585
9.481,-0.945,-0.570
9.483,-0.935,-0.575
9.486,-0.925,-0.565
9.489,-0.920,-0.575
9.492,-0.920,-0.575
9.494,-0.925,-0.585
9.497,-0.930,-0.595
9.500,-0.935,-0.585
9.503,-0.945,-0.600
9.506,-0.950,-0.580
9.508,-0.945,-0.590
9.511,-0.945,-0.575
9.514,-0.940,-0.580
9.517,-0.930,-0.585
9.519,-0.915,-0.545
9.522,-0.915,-0.575
9.525,-0.910,-0.560
9.528,-0.920,-0.565
9.531,-0.930,-0.590
9.533,-0.945,-0.585
9.536,-0.945,-0.600
9.539,-0.950,-0.600
9.542,-0.950,-0.575
9.544,-0.940,-0.580
9.547,-0.925,-0.570
9.550,-0.920,-0.575
9.553,-0.915,-0.570
9.556,-0.920,-0.570
9.558,-0.910,-0.570
9.561,-0.910,-0.570
9.564,-0.905,-0.585
9.567,-0.925,-0.590
9.569,-0.920,-0.590
9.572,-0.920,-0.585
9.575,-0.910,-0.595
9.578,-0.905,-0.570
9.581,-0.895,-0.570
9.583,-0.870,-0.555
9.586,-0.845,-0.565
9.589,-0.840,-0.550
9.592,-0.830,-0.565
9.594,-0.825,-0.580
9.597,-0.835,-0.590
9.600,-0.840,-0.585
9.603,-0.830,-0.570
9.606,-0.830,-0.580
9.608,-0.805,-0.555
9.611,-0.780,-0.535
9.614,-0.755,-0.530
9.617,-0.740,-0.495
9.619,-0.725,-0.470
9.622,-0.720,-0.460
9.625,-0.720,-0.465
9.628,-0.730,-0.440
9.631,-0.730,-0.425
9.633,-0.755,-0.415
9.636,-0.765,-0.420
9.639,-0.800,-0.420
9.642,-0.805,-0.415
9.644,-0.800,-0.410
9.647,-0.800,-0.405
9.650,-0.805,-0.420
9.653,-0.810,-0.410
9.656,-0.840,-0.425
9.658,-0.845,-0.430
9.661,-0.875,-0.445
9.664,-0.885,-0.470
9.667,-0.895,-0.500
9.669,-0.905,-0.535
9.672,-0.900,-0.545
9.675,-0.930,-0.535
9.678,-0.925,-0.535
9.681,-0.910,-0.535
9.683,-0.910,-0.530
9.686,-0.900,-0.525
9.689,-0.885,-0.520
9.692,-0.900,-0.525
9.694,-0.915,-0.545
9.697,-0.925,-0.550
9.700,-0.930,-0.570
9.703,-0.955,-0.570
9.706,-0.945,-0.585
9.708,-0.940,-0.570
9.711,-0.925,-0.575
9.714,-0.935,-0.565
9.717,-0.905,-0.550
9.719,-0.905,-0.555
9.722,-0.895,-0.555
9.725,-0.905,-0.555
9.728,-0.900,-0.575
9.731,-0.910,-0.575
9.733,-0.925,-0.570
9.736,-0.925,-0.580
9.739,-0.930,-0.590
9.742,-0.920,-0.570
9.744,-0.915,-0.555
9.747,-0.905,-0.550
9.750,-0.885,-0.535
9.753,-0.865,-0.530
9.756,-0.850,-0.535
9.758,-0.800,-0.550
9.761,-0.750,-0.540
9.764,-0.650,-0.495
9.767,-0.560,-0.380
9.769,-0.440,-0.215
9.772,-0.300,0.000
9.775,-0.155,0.250
9.778,-0.030,0.545
9.781,0.000,0.820
9.783,-0.040,1.055
9.786,-0.175,1.205
9.789,-0.395,1.230
9.792,-0.660,1.125
9.794,-0.980,0.880
9.797,-1.230,0.525
9.800,-1.475,0.095
9.803,-1.640,-0.335
9.806,-1.695,-0.705
9.808,-1.650,-0.930
9.811,-1.570,-0.985
9.814,-1.435,-0.935
9.817,-1.315,-0.805
9.819,-1.230,-0.720
9.822,-1.155,-0.645
9.825,-1.090,-0.625
9.828,-1.030,-0.605
9.831,-0.960,-0.590
9.833,-0.910,-0.585
9.836,-0.875,-0.555
9.839,-0.855,-0.540
9.842,-0.815,-0.550
9.844,-0.830,-0.515
9.847,-0.825,-0.515
9.850,-0.830,-0.495
9.853,-0.810,-0.500
9.856,-0.795,-0.500
9.858,-0.795,-0.500
9.861,-0.765,-0.485
9.864,-0.780,-0.495
9.867,-0.775,-0.505
9.869,-0.780,-0.520
9.872,-0.790,-0.520
9.875,-0.785,-0.510
9.878,-0.790,-0.485
9.881,-0.775,-0.495
9.883,-0.765,-0.470
9.886,-0.750,-0.455
9.889,-0.740,-0.470
9.892,-0.730,-0.475
9.894,-0.740,-0.470
9.897,-0.735,-0.465
9.900,-0.740,-0.480
9.903,-0.750,-0.480
9.906,-0.750,-0.455
9.908,-0.750,-0.450
9.911,-0.735,-0.440
9.914,-0.720,-0.440
9.917,-0.715,-0.415
9.919,-0.695,-0.410
9.922,-0.690,-0.410
9.925,-0.690,-0.415
9.928,-0.715,-0.425
9.931,-0.700,-0.435
9.933,-0.710,-0.435
9.936,-0.715,-0.420
9.939,-0.705,-0.435
9.942,-0.700,-0.430
9.944,-0.690,-0.400
9.947,-0.680,-0.385
9.950,-0.655,-0.370
9.953,-0.660,-0.365
9.956,-0.630,-0.360
9.958,-0.625,-0.370
9.961,-0.620,-0.360
9.964,-0.635,-0.360
9.967,-0.620,-0.350
9.969,-0.625,-0.360
9.972,-0.620,-0.350
9.975,-0.605,-0.345
9.978,-0.600,-0.325
9.981,-0.580,-0.300
9.983,-0.575,-0.285
9.986,-0.560,-0.265
9.989,-0.540,-0.270
9.992,-0.535,-0.255
9.994,-0.520,-0.250
9.997,-0.520,-0.250
10.000,-0.510,-0.240
10.003,-0.495,-0.230
10.006,-0.485,-0.225
10.008,-0.475,-0.205
10.011,-0.465,-0.170
10.014,-0.430,-0.130
10.017,-0.405,-0.110
10.019,-0.375,-0.080
10.022,-0.350,-0.055
10.025,-0.340,-0.035
10.028,-0.320,-0.020
10.031,-0.310,-0.010
10.033,-0.300,-0.005
10.036,-0.285,0.020
10.039,-0.265,0.040
10.042,-0.255,0.080
10.044,-0.245,0.100
10.047,-0.205,0.145
10.050,-0.190,0.175
10.053,-0.165,0.185
10.056,-0.155,0.195
10.058,-0.160,0.190
10.061,-0.155,0.190
10.064,-0.155,0.195
10.067,-0.165,0.180
10.069,-0.165,0.185
10.072,-0.160,0.190
10.075,-0.175,0.190
10.078,-0.175,0.200
10.081,-0.180,0.200
10.083,-0.185,0.185
10.086,-0.195,0.205
10.089,-0.190,0.185
10.092,-0.200,0.150
10.094,-0.225,0.115
10.097,-0.250,0.105
10.100,-0.290,0.050
10.103,-0.310,0.015
10.106,-0.350,-0.010
10.108,-0.380,-0.035
10.111,-0.405,-0.065
10.114,-0.430,-0.080
10.117,-0.455,-0.115
10.119,-0.465,-0.125
10.122,-0.490,-0.190
10.125,-0.510,-0.235
10.128,-0.540,-0.270
10.131,-0.575,-0.310
10.133,-0.600,-0.330
10.136,-0.625,-0.365
10.139,-0.655,-0.405
10.142,-0.665,-0.415
10.144,-0.685,-0.425
10.147,-0.690,-0.440
10.150,-0.705,-0.435
10.153,-0.695,-0.445
10.156,-0.705,-0.460
10.158,-0.710,-0.505
10.161,-0.735,-0.510
10.164,-0.745,-0.530
10.167,-0.765,-0.540
10.169,-0.790,-0.555
10.172,-0.800,-0.560
10.175,-0.800,-0.565
10.178,-0.795,-0.560
10.181,-0.790,-0.570
10.183,-0.780,-0.565
10.186,-0.760,-0.540
10.189,-0.780,-0.570
10.192,-0.770,-0.570
10.194,-0.790,-0.590
10.197,-0.780,-0.590
10.200,-0.800,-0.595
10.203,-0.820,-0.620
10.206,-0.830,-0.610
10.208,-0.820,-0.605
10.211,-0.815,-0.600
10.214,-0.810,-0.580
10.217,-0.795,-0.570
10.219,-0.795,-0.575
10.222,-0.770,-0.575
10.225,-0.785,-0.585
10.228,-0.775,-0.580
10.231,-0.790,-0.585
10.233,-0.800,-0.610
10.236,-0.800,-0.610
10.239,-0.805,-0.620
10.242,-0.800,-0.605
10.244,-0.805,-0.575
10.247,-0.795,-0.575
10.250,-0.790,-0.555
10.253,-0.785,-0.545
10.256,-0.780,-0.540
10.258,-0.775,-0.535
10.261,-0.775,-0.530
10.264,-0.780,-0.545
10.267,-0.790,-0.555
10.269,-0.790,-0.545
10.272,-0.805,-0.560
10.275,-0.800,-0.560
10.278,-0.785,-0.530
10.281,-0.780,-0.535
10.283,-0.770,-0.525
10.286,-0.765,-0.510
10.289,-0.765,-0.500
10.292,-0.765,-0.515
10.294,-0.765,-0.520
10.297,-0.770,-0.555
10.300,-0.790,-0.520
10.303,-0.800,-0.555
10.306,-0.820,-0.555
10.308,-0.820,-0.545
10.311,-0.820,-0.555
10.314,-0.810,-0.530
10.317,-0.805,-0.520
10.319,-0.800,-0.520
10.322,-0.795,-0.530
10.325,-0.800,-0.535
10.328,-0.800,-0.540
10.331,-0.810,-0.555
10.333,-0.820,-0.565
10.336,-0.835,-0.565
10.339,-0.850,-0.565
10.342,-0.865,-0.575
10.344,-0.860,-0.560
10.347,-0.865,-0.560
10.350,-0.840,-0.560
10.353,-0.825,-0.540
10.356,-0.835,-0.580
10.358,-0.840,-0.565
10.361,-0.840,-0.570
10.364,-0.850,-0.580
10.367,-0.850,-0.580
10.369,-0.850,-0.585
10.372,-0.860,-0.605
10.375,-0.865,-0.615
10.378,-0.860,-0.610
10.381,-0.870,-0.575
10.383,-0.855,-0.580
10.386,-0.845,-0.570
10.389,-0.845,-0.585
10.392,-0.850,-0.570
10.394,-0.870,-0.585
10.397,-0.870,-0.620
10.400,-0.880,-0.600
10.403,-0.890,-0.615
10.406,-0.890,-0.610
10.408,-0.895,-0.620
10.411,-0.915,-0.600
10.414,-0.895,-0.590
10.417,-0.885,-0.585
10.419,-0.865,-0.565
10.422,-0.850,-0.575
10.425,-0.850,-0.595
10.428,-0.855,-0.590
10.431,-0.860,-0.610
10.433,-0.870,-0.600
10.436,-0.900,-0.605
10.439,-0.900,-0.590
10.442,-0.905,-0.610
10.444,-0.885,-0.600
10.447,-0.885,-0.565
10.450,-0.880,-0.565
10.453,-0.870,-0.575
10.456,-0.855,-0.585
10.458,-0.870,-0.590
10.461,-0.865,-0.590
10.464,-0.875,-0.610
10.467,-0.885,-0.605
10.469,-0.905,-0.610
10.472,-0.910,-0.615
10.475,-0.900,-0.600
10.478,-0.905,-0.590
10.481,-0.895,-0.575
10.483,-0.885,-0.580
10.486,-0.860,-0.565
10.489,-0.870,-0.575
10.492,-0.870,-0.585
10.494,-0.865,-0.590
10.497,-0.865,-0.600
10.500,-0.880,-0.610
10.503,-0.885,-0.600
10.506,-0.890,-0.605
10.508,-0.890,-0.610
10.511,-0.880,-0.595
10.514,-0.875,-0.575
10.517,-0.870,-0.580
10.519,-0.885,-0.575
10.522,-0.875,-0.565
10.525,-0.865,-0.580
10.528,-0.870,-0.575
10.531,-0.870,-0.590
10.533,-0.875,-0.605
10.536,-0.895,-0.595
10.539,-0.900,-0.605
10.542,-0.915,-0.595
10.544,-0.915,-0.580
10.547,-0.910,-0.575
10.550,-0.885,-0.575
10.553,-0.880,-0.565
10.556,-0.870,-0.570
10.558,-0.865,-0.585
10.561,-0.865,-0.590
10.564,-0.880,-0.600
10.567,-0.880,-0.610
10.569,-0.880,-0.610
10.572,-0.900,-0.615
10.575,-0.910,-0.600
10.578,-0.910,-0.585
10.581,-0.890,-0.590
10.583,-0.885,-0.590
10.586,-0.865,-0.565
10.589,-0.855,-0.570
10.592,-0.875,-0.575
10.594,-0.870,-0.590
10.597,-0.875,-0.595
10.600,-0.875,-0.610
10.603,-0.900,-0.615
10.606,-0.910,-0.610
10.608,-0.900,-0.600
10.611,-0.905,-0.605
10.614,-0.890,-0.580
10.617,-0.890,-0.575
10.619,-0.870,-0.575
10.622,-0.850,-0.570
10.625,-0.860,-0.570
10.628,-0.855,-0.595
10.631,-0.870,-0.600
10.633,-0.875,-0.610
10.636,-0.880,-0.595
10.639,-0.880,-0.600
10.642,-0.880,-0.600
10.644,-0.880,-0.580
10.647,-0.870,-0.575
10.650,-0.870,-0.580
10.653,-0.880,-0.565
10.656,-0.855,-0.580
10.658,-0.850,-0.575
10.661,-0.860,-0.580
10.664,-0.855,-0.575
10.667,-0.865,-0.595
10.669,-0.880,-0.590
10.672,-0.885,-0.585
10.675,-0.885,-0.585
10.678,-0.890,-0.570
10.681,-0.875,-0.555
10.683,-0.860,-0.550
10.686,-0.875,-0.530
10.689,-0.845,-0.555
10.692,-0.850,-0.545
10.694,-0.855,-0.545
10.697,-0.885,-0.570
10.700,-0.875,-0.580
10.703,-0.870,-0.575
10.706,-0.895,-0.590
10.708,-0.895,-0.570
10.711,-0.890,-0.560
10.714,-0.855,-0.565
10.717,-0.860,-0.545
10.719,-0.850,-0.555
10.722,-0.845,-0.535
10.725,-0.845,-0.550
10.728,-0.845,-0.555
10.731,-0.860,-0.555
10.733,-0.875,-0.555
10.736,-0.895,-0.570
10.739,-0.890,-0.585
10.742,-0.895,-0.585
10.744,-0.890,-0.565
10.747,-0.855,-0.565
10.750,-0.850,-0.560
10.753,-0.845,-0.545
10.756,-0.840,-0.540
10.758,-0.835,-0.555
10.761,-0.855,-0.555
10.764,-0.845,-0.570
10.767,-0.845,-0.580
10.769,-0.855,-0.580
10.772,-0.850,-0.580
10.775,-0.835,-0.580
10.778,-0.820,-0.575
10.781,-0.805,-0.560
10.783,-0.795,-0.555
10.786,-0.775,-0.545
10.789,-0.765,-0.555
10.792,-0.765,-0.545
10.794,-0.740,-0.555
10.797,-0.750,-0.540
10.800,-0.730,-0.565
10.803,-0.735,-0.530
10.806,-0.735,-0.520
10.808,-0.700,-0.495
10.811,-0.685,-0.480
10.814,-0.685,-0.440
10.817,-0.675,-0.440
10.819,-0.665,-0.400
10.822,-0.665,-0.390
10.825,-0.670,-0.375
10.828,-0.690,-0.370
10.831,-0.695,-0.380
10.833,-0.720,-0.360
10.836,-0.740,-0.365
10.839,-0.760,-0.385
10.842,-0.760,-0.385
10.844,-0.765,-0.360
10.847,-0.765,-0.370
10.850,-0.790,-0.365
10.853,-0.795,-0.385
10.856,-0.795,-0.395
10.858,-0.810,-0.415
10.861,-0.820,-0.440
10.864,-0.840,-0.470
10.867,-0.855,-0.485
10.869,-0.860,-0.510
10.872,-0.900,-0.515
10.875,-0.885,-0.525
10.878,-0.870,-0.525
10.881,-0.870,-0.505
10.883,-0.855,-0.500
10.886,-0.865,-0.490
10.889,-0.860,-0.490
10.892,-0.890,-0.505
10.894,-0.880,-0.530
10.897,-0.890,-0.530
10.900,-0.890,-0.540
10.903,-0.895,-0.565
10.906,-0.915,-0.570
10.908,-0.905,-0.540
10.911,-0.900,-0.545
10.914,-0.890,-0.535
10.917,-0.880,-0.530
10.919,-0.875,-0.505
10.922,-0.870,-0.510
10.925,-0.875,-0.530
10.928,-0.880,-0.545
10.931,-0.875,-0.555
10.933,-0.870,-0.560
10.936,-0.875,-0.540
10.939,-0.870,-0.545
10.942,-0.865,-0.540
10.944,-0.845,-0.530
10.947,-0.820,-0.530
10.950,-0.785,-0.520
10.953,-0.720,-0.500
10.956,-0.635,-0.450
10.958,-0.530,-0.345
10.961,-0.410,-0.195
10.964,-0.270,0.035
10.967,-0.150,0.275
10.969,-0.050,0.545
10.972,-0.015,0.800
10.975,-0.070,1.035
10.978,-0.215,1.195
10.981,-0.440,1.230
10.983,-0.705,1.115
10.986,-0.965,0.840
10.989,-1.210,0.475
10.992,-1.430,0.055
10.994,-1.555,-0.365
10.997,-1.625,-0.690
11.000,-1.575,-0.845
11.003,-1.475,-0.855
11.006,-1.340,-0.780
11.008,-1.235,-0.670
11.011,-1.145,-0.565
11.014,-1.065,-0.535
11.017,-1.005,-0.480
11.019,-0.945,-0.465
11.022,-0.865,-0.470
11.025,-0.825,-0.460
11.028,-0.795,-0.475
11.031,-0.800,-0.475
11.033,-0.815,-0.470
11.036,-0.805,-0.470
11.039,-0.835,-0.480
11.042,-0.830,-0.495
11.044,-0.820,-0.475
11.047,-0.815,-0.470
11.050,-0.770,-0.450
11.053,-0.760,-0.455
11.056,-0.750,-0.455
11.058,-0.755,-0.460
11.061,-0.760,-0.445
11.064,-0.750,-0.435
11.067,-0.755,-0.455
11.069,-0.765,-0.460
11.072,-0.775,-0.450
11.075,-0.765,-0.435
11.078,-0.755,-0.430
11.081,-0.740,-0.445
11.083,-0.735,-0.420
11.086,-0.720,-0.400
11.089,-0.705,-0.425
11.092,-0.705,-0.410
11.094,-0.705,-0.410
11.097,-0.715,-0.425
11.100,-0.715,-0.425
11.103,-0.715,-0.430
11.106,-0.725,-0.435
11.108,-0.715,-0.410
11.111,-0.705,-0.395
11.114,-0.695,-0.385
11.117,-0.675,-0.380
11.119,-0.680,-0.365
11.122,-0.660,-0.360
11.125,-0.660,-0.370
11.128,-0.650,-0.365
11.131,-0.660,-0.370
11.133,-0.690,-0.385
11.136,-0.675,-0.375
11.139,-0.695,-0.390
11.142,-0.685,-0.370
11.144,-0.690,-0.360
11.147,-0.655,-0.335
11.150,-0.645,-0.315
11.153,-0.635,-0.305
11.156,-0.610,-0.300
11.158,-0.615,-0.290
11.161,-0.605,-0.290
11.164,-0.590,-0.290
11.167,-0.590,-0.300
11.169,-0.585,-0.280
11.172,-0.585,-0.270
11.175,-0.570,-0.250
11.178,-0.555,-0.230
11.181,-0.535,-0.230
11.183,-0.520,-0.210
11.186,-0.495,-0.175
11.189,-0.495,-0.155
11.192,-0.460,-0.140
11.194,-0.460,-0.135
11.197,-0.455,-0.135
11.200,-0.435,-0.120
11.203,-0.430,-0.080
11.206,-0.425,-0.085
11.208,-0.405,-0.080
11.211,-0.385,-0.015
11.214,-0.340,-0.005
11.217,-0.325,0.025
11.219,-0.300,0.050
11.222,-0.285,0.060
11.225,-0.265,0.085
11.228,-0.230,0.090
11.231,-0.235,0.095
11.233,-0.220,0.105
11.236,-0.210,0.115
11.239,-0.215,0.130
11.242,-0.200,0.145
11.244,-0.185,0.180
11.247,-0.160,0.195
11.250,-0.160,0.200
11.253,-0.145,0.225
11.256,-0.135,0.235
11.258,-0.130,0.210
11.261,-0.140,0.215
11.264,-0.135,0.215
11.267,-0.160,0.215
11.269,-0.175,0.210
11.272,-0.175,0.210
11.275,-0.190,0.185
11.278,-0.200,0.180
11.281,-0.210,0.165
11.283,-0.225,0.145
11.286,-0.255,0.130
11.289,-0.280,0.105
11.292,-0.310,0.055
11.294,-0.335,0.030
11.297,-0.375,-0.020
11.300,-0.415,-0.075
11.303,-0.435,-0.095
11.306,-0.485,-0.145
11.308,-0.505,-0.165
11.311,-0.545,-0.195
11.314,-0.555,-0.215
11.317,-0.575,-0.240
11.319,-0.595,-0.260
11.322,-0.615,-0.310
11.325,-0.640,-0.335
11.328,-0.675,-0.380
11.331,-0.690,-0.400
11.333,-0.705,-0.415
11.336,-0.730,-0.440
11.339,-0.755,-0.460
11.342,-0.770,-0.475
11.344,-0.765,-0.470
11.347,-0.775,-0.475
11.350,-0.775,-0.475
11.353,-0.775,-0.480
11.356,-0.760,-0.490
11.358,-0.765,-0.495
11.361,-0.770,-0.500
11.364,-0.780,-0.510
11.367,-0.800,-0.550
11.369,-0.800,-0.535
11.372,-0.795,-0.550
11.375,-0.815,-0.535
11.378,-0.815,-0.530
11.381,-0.795,-0.520
11.383,-0.795,-0.520
11.386,-0.790,-0.510
11.389,-0.785,-0.515
11.392,-0.790,-0.525
11.394,-0.790,-0.525
11.397,-0.810,-0.535
11.400,-0.810,-0.535
11.403,-0.810,-0.550
11.406,-0.815,-0.555
11.408,-0.810,-0.545
11.411,-0.810,-0.535
11.414,-0.800,-0.510
11.417,-0.795,-0.505
11.419,-0.770,-0.510
11.422,-0.780,-0.500
11.425,-0.780,-0.490
11.428,-0.785,-0.505
11.431,-0.780,-0.510
11.433,-0.785,-0.520
11.436,-0.800,-0.525
11.439,-0.805,-0.515
11.442,-0.810,-0.515
11.444,-0.800,-0.500
11.447,-0.795,-0.510
11.450,-0.785,-0.490
11.453,-0.770,-0.490
11.456,-0.770,-0.510
11.458,-0.760,-0.510
11.461,-0.765,-0.510
11.464,-0.790,-0.505
11.467,-0.785,-0.520
11.469,-0.800,-0.535
11.472,-0.810,-0.525
11.475,-0.805,-0.535
11.478,-0.805,-0.530
11.481,-0.815,-0.510
11.483,-0.810,-0.500
11.486,-0.815,-0.485
11.489,-0.790,-0.495
11.492,-0.785,-0.500
11.494,-0.805,-0.505
11.497,-0.815,-0.515
11.500,-0.830,-0.535
11.503,-0.845,-0.560
11.506,-0.860,-0.560
11.508,-0.840,-0.560
11.511,-0.855,-0.540
11.514,-0.855,-0.535
11.517,-0.850,-0.520
11.519,-0.840,-0.535
11.522,-0.830,-0.535
11.525,-0.845,-0.540
11.528,-0.850,-0.560
11.531,-0.870,-0.570
11.533,-0.870,-0.565
11.536,-0.885,-0.575
11.539,-0.880,-0.585
11.542,-0.875,-0.570
11.544,-0.865,-0.565
11.547,-0.865,-0.555
11.550,-0.870,-0.555
11.553,-0.865,-0.540
11.556,-0.865,-0.540
11.558,-0.855,-0.540
11.561,-0.850,-0.540
11.564,-0.870,-0.570
11.567,-0.885,-0.560
11.569,-0.895,-0.570
11.572,-0.905,-0.580
11.575,-0.900,-0.580
11.578,-0.905,-0.565
11.581,-0.900,-0.555
11.583,-0.885,-0.555
11.586,-0.880,-0.540
11.589,-0.880,-0.550
11.592,-0.860,-0.555
11.594,-0.875,-0.545
11.597,-0.880,-0.550
11.600,-0.895,-0.565
11.603,-0.915,-0.560
11.606,-0.910,-0.555
11.608,-0.915,-0.560
11.611,-0.920,-0.545
11.614,-0.915,-0.525
11.617,-0.905,-0.535
11.619,-0.895,-0.540
11.622,-0.890,-0.525
11.625,-0.885,-0.530
11.628,-0.890,-0.545
11.631,-0.895,-0.555
11.633,-0.905,-0.565
11.636,-0.925,-0.570
11.639,-0.940,-0.575
11.642,-0.940,-0.565
11.644,-0.940,-0.580
11.647,-0.925,-0.580
11.650,-0.915,-0.570
11.653,-0.905,-0.565
11.656,-0.910,-0.580
11.658,-0.895,-0.550
11.661,-0.910,-0.575
11.664,-0.920,-0.575
11.667,-0.915,-0.585
11.669,-0.925,-0.585
11.672,-0.925,-0.580
11.675,-0.940,-0.585
11.678,-0.930,-0.575
11.681,-0.925,-0.565
11.683,-0.910,-0.565
11.686,-0.905,-0.550
11.689,-0.905,-0.565
11.692,-0.905,-0.555
11.694,-0.920,-0.565
11.697,-0.915,-0.585
11.700,-0.935,-0.585
11.703,-0.940,-0.605
11.706,-0.945,-0.600
11.708,-0.945,-0.580
11.711,-0.940,-0.580
11.714,-0.935,-0.575
11.717,-0.925,-0.570
11.719,-0.930,-0.565
11.722,-0.915,-0.575
11.725,-0.915,-0.565
11.728,-0.915,-0.570
11.731,-0.920,-0.600
11.733,-0.915,-0.600
11.736,-0.930,-0.580
11.739,-0.930,-0.600
11.742,-0.935,-0.585
11.744,-0.945,-0.565
11.747,-0.940,-0.570
11.750,-0.920,-0.545
11.753,-0.930,-0.550
11.756,-0.925,-0.550
11.758,-0.900,-0.550
11.761,-0.900,-0.550
11.764,-0.930,-0.560
11.767,-0.930,-0.565
11.769,-0.950,-0.570
11.772,-0.935,-0.580
11.775,-0.940,-0.570
11.778,-0.930,-0.565
11.781,-0.925,-0.545
11.783,-0.925,-0.520
11.786,-0.915,-0.515
11.789,-0.905,-0.520
11.792,-0.895,-0.505
11.794,-0.915,-0.520
11.797,-0.925,-0.525
11.800,-0.930,-0.535
11.803,-0.940,-0.530
11.806,-0.945,-0.535
11.808,-0.940,-0.540
11.811,-0.940,-0.530
11.814,-0.935,-0.515
11.817,-0.930,-0.505
11.819,-0.935,-0.490
11.822,-0.920,-0.495
11.825,-0.930,-0.500
11.828,-0.915,-0.495
11.831,-0.915,-0.505
11.833,-0.925,-0.515
11.836,-0.920,-0.520
11.839,-0.945,-0.520
11.842,-0.955,-0.530
11.844,-0.960,-0.510
11.847,-0.940,-0.510
11.850,-0.920,-0.495
11.853,-0.900,-0.485
11.856,-0.900,-0.480
11.858,-0.910,-0.480
11.861,-0.910,-0.495
11.864,-0.930,-0.510
11.867,-0.915,-0.500
11.869,-0.930,-0.515
11.872,-0.940,-0.505
11.875,-0.935,-0.510
11.878,-0.950,-0.505
11.881,-0.950,-0.505
11.883,-0.940,-0.495
11.886,-0.910,-0.485
11.889,-0.905,-0.480
11.892,-0.910,-0.485
11.894,-0.905,-0.485
11.897,-0.915,-0.500
11.900,-0.920,-0.520
11.903,-0.935,-0.520
11.906,-0.930,-0.520
11.908,-0.945,-0.505
11.911,-0.935,-0.515
11.914,-0.930,-0.505
11.917,-0.915,-0.500
11.919,-0.925,-0.490
11.922,-0.905,-0.485
11.925,-0.895,-0.505
11.928,-0.900,-0.500
11.931,-0.920,-0.505
11.933,-0.935,-0.520
11.936,-0.945,-0.515
11.939,-0.945,-0.520
11.942,-0.940,-0.505
11.944,-0.925,-0.500
11.947,-0.910,-0.490
11.950,-0.880,-0.485
11.953,-0.865,-0.465
11.956,-0.850,-0.475
11.958,-0.840,-0.485
11.961,-0.825,-0.490
11.964,-0.820,-0.490
11.967,-0.830,-0.485
11.969,-0.845,-0.485
11.972,-0.825,-0.465
11.975,-0.815,-0.465
11.978,-0.805,-0.435
11.981,-0.790,-0.405
11.983,-0.755,-0.395
11.986,-0.730,-0.390
11.989,-0.730,-0.375
11.992,-0.750,-0.345
11.994,-0.735,-0.335
11.997,-0.755,-0.325
12.000,-0.775,-0.325
12.003,-0.795,-0.315
12.006,-0.810,-0.335
12.008,-0.835,-0.320
12.011,-0.830,-0.325
12.014,-0.820,-0.315
12.017,-0.830,-0.305
12.019,-0.835,-0.330
12.022,-0.820,-0.335
12.025,-0.855,-0.350
12.028,-0.880,-0.365
12.031,-0.900,-0.385
12.033,-0.920,-0.410
12.036,-0.940,-0.430
12.039,-0.950,-0.455
12.042,-0.950,-0.470
12.044,-0.945,-0.460
12.047,-0.945,-0.455
12.050,-0.940,-0.470
12.053,-0.935,-0.460
12.056,-0.935,-0.455
12.058,-0.930,-0.460
12.061,-0.945,-0.485
12.064,-0.955,-0.490
12.067,-0.980,-0.510
12.069,-0.975,-0.525
12.072,-0.980,-0.525
12.075,-0.980,-0.535
12.078,-0.980,-0.505
12.081,-0.980,-0.490
12.083,-0.965,-0.490
12.086,-0.960,-0.480
12.089,-0.965,-0.485
12.092,-0.965,-0.485
12.094,-0.955,-0.495
12.097,-0.950,-0.490
12.100,-0.955,-0.490
12.103,-0.970,-0.505
12.106,-0.960,-0.510
12.108,-0.960,-0.520
12.111,-0.955,-0.500
12.114,-0.935,-0.500
12.117,-0.930,-0.490
12.119,-0.910,-0.475
12.122,-0.875,-0.485
12.125,-0.820,-0.465
12.128,-0.740,-0.425
12.131,-0.665,-0.340
12.133,-0.565,-0.200
12.136,-0.440,-0.015
12.139,-0.305,0.200
12.142,-0.215,0.465
12.144,-0.155,0.730
12.147,-0.165,0.955
12.150,-0.270,1.140
12.153,-0.445,1.210
12.156,-0.700,1.150
12.158,-0.965,0.990
12.161,-1.215,0.715
12.164,-1.450,0.350
12.167,-1.650,-0.050
12.169,-1.775,-0.480
12.172,-1.820,-0.795
12.175,-1.785,-0.975
12.178,-1.660,-1.000
12.181,-1.530,-0.885
12.183,-1.425,-0.760
12.186,-1.345,-0.665
12.189,-1.260,-0.590
12.192,-1.190,-0.560
12.194,-1.125,-0.555
12.197,-1.050,-0.530
12.200,-0.990,-0.500
12.203,-0.975,-0.490
12.206,-0.940,-0.485
12.208,-0.940,-0.470
12.211,-0.945,-0.460
12.214,-0.925,-0.435
12.217,-0.940,-0.435
12.219,-0.910,-0.435
12.222,-0.905,-0.440
12.225,-0.900,-0.435
12.228,-0.890,-0.440
12.231,-0.890,-0.430
12.233,-0.885,-0.440
12.236,-0.885,-0.445
12.239,-0.890,-0.445
12.242,-0.885,-0.420
12.244,-0.890,-0.410
12.247,-0.875,-0.405
12.250,-0.860,-0.390
12.253,-0.845,-0.390
12.256,-0.830,-0.375
12.258,-0.835,-0.375
12.261,-0.845,-0.385
12.264,-0.855,-0.390
12.267,-0.850,-0.385
12.269,-0.865,-0.395
12.272,-0.860,-0.395
12.275,-0.850,-0.395
12.278,-0.840,-0.380
12.281,-0.850,-0.360
12.283,-0.840,-0.350
12.286,-0.820,-0.340
12.289,-0.820,-0.330
12.292,-0.810,-0.340
12.294,-0.800,-0.330
12.297,-0.805,-0.335
12.300,-0.815,-0.320
12.303,-0.810,-0.325
12.306,-0.805,-0.330
12.308,-0.795,-0.325
12.311,-0.795,-0.330
12.314,-0.785,-0.310
12.317,-0.785,-0.300
12.319,-0.785,-0.295
12.322,-0.780,-0.280
12.325,-0.755,-0.285
12.328,-0.745,-0.270
12.331,-0.740,-0.270
12.333,-0.760,-0.270
12.336,-0.750,-0.260
12.339,-0.740,-0.265
12.342,-0.735,-0.250
12.344,-0.730,-0.225
12.347,-0.705,-0.195
12.350,-0.695,-0.185
12.353,-0.675,-0.155
12.356,-0.640,-0.155
12.358,-0.645,-0.130
12.361,-0.640,-0.140
12.364,-0.635,-0.120
12.367,-0.605,-0.115
12.369,-0.615,-0.110
12.372,-0.595,-0.095
12.375,-0.600,-0.080
12.378,-0.565,-0.035
12.381,-0.550,-0.015
12.383,-0.540,0.030
12.386,-0.525,0.050
12.389,-0.475,0.055
12.392,-0.475,0.095
12.394,-0.445,0.105
12.397,-0.440,0.115
12.400,-0.420,0.120
12.403,-0.400,0.135
12.406,-0.390,0.145
12.408,-0.380,0.180
12.411,-0.340,0.215
12.414,-0.325,0.220
12.417,-0.310,0.265
12.419,-0.290,0.290
12.422,-0.255,0.290
12.425,-0.250,0.315
12.428,-0.225,0.330
12.431,-0.225,0.325
12.433,-0.245,0.325
12.436,-0.240,0.320
12.439,-0.245,0.325
12.442,-0.240,0.335
12.444,-0.260,0.340
12.447,-0.230,0.350
12.450,-0.230,0.355
12.453,-0.220,0.360
12.456,-0.230,0.345
12.458,-0.235,0.315
12.461,-0.270,0.290
12.464,-0.315,0.265
12.467,-0.325,0.225
12.469,-0.375,0.180
12.472,-0.410,0.135
12.475,-0.450,0.110
12.478,-0.485,0.065
12.481,-0.530,0.025
12.483,-0.540,-0.005
12.486,-0.570,-0.035
12.489,-0.580,-0.085
12.492,-0.610,-0.115
12.494,-0.645,-0.150
12.497,-0.670,-0.205
12.500,-0.695,-0.225
12.503,-0.735,-0.265
12.506,-0.770,-0.295
12.508,-0.805,-0.315
12.511,-0.805,-0.320
12.514,-0.820,-0.340
12.517,-0.835,-0.340
12.519,-0.830,-0.355
12.522,-0.825,-0.380
12.525,-0.830,-0.380
12.528,-0.855,-0.395
12.531,-0.860,-0.410
12.533,-0.875,-0.435
12.536,-0.885,-0.470
12.539,-0.880,-0.460
12.542,-0.900,-0.450
12.544,-0.895,-0.450
12.547,-0.885,-0.430
12.550,-0.885,-0.425
12.553,-0.875,-0.435
12.556,-0.880,-0.415
12.558,-0.880,-0.435
12.561,-0.885,-0.425
12.564,-0.895,-0.440
12.567,-0.900,-0.465
12.569,-0.920,-0.480
12.572,-0.915,-0.480
12.575,-0.930,-0.490
12.578,-0.935,-0.480
12.581,-0.925,-0.465
12.583,-0.910,-0.465
12.586,-0.905,-0.450
12.589,-0.890,-0.440
12.592,-0.895,-0.455
12.594,-0.885,-0.465
12.597,-0.885,-0.465
12.600,-0.895,-0.460
12.603,-0.910,-0.475
12.606,-0.900,-0.470
12.608,-0.915,-0.465
12.611,-0.895,-0.470
12.614,-0.905,-0.450
12.617,-0.890,-0.435
12.619,-0.880,-0.425
12.622,-0.875,-0.440
12.625,-0.890,-0.435
12.628,-0.880,-0.430
12.631,-0.870,-0.445
12.633,-0.895,-0.435
12.636,-0.890,-0.445
12.639,-0.895,-0.455
12.642,-0.895,-0.440
12.644,-0.890,-0.435
12.647,-0.895,-0.435
12.650,-0.895,-0.410
12.653,-0.870,-0.420
12.656,-0.895,-0.405
12.658,-0.910,-0.430
12.661,-0.900,-0.430
12.664,-0.910,-0.435
12.667,-0.915,-0.455
12.669,-0.920,-0.460
12.672,-0.930,-0.465
12.675,-0.925,-0.450
12.678,-0.925,-0.450
12.681,-0.925,-0.460
12.683,-0.915,-0.445
12.686,-0.920,-0.440
12.689,-0.915,-0.445
12.692,-0.910,-0.460
12.694,-0.925,-0.455
12.697,-0.930,-0.455
12.700,-0.950,-0.485
12.703,-0.950,-0.480
12.706,-0.940,-0.485
12.708,-0.950,-0.475
12.711,-0.955,-0.470
12.714,-0.945,-0.460
12.717,-0.935,-0.465
12.719,-0.945,-0.470
12.722,-0.945,-0.435
12.725,-0.925,-0.465
12.728,-0.935,-0.480
12.731,-0.950,-0.480
12.733,-0.945,-0.485
12.736,-0.950,-0.490
12.739,-0.955,-0.485
12.742,-0.965,-0.475
12.744,-0.975,-0.475
12.747,-0.975,-0.465
12.750,-0.985,-0.450
12.753,-0.965,-0.440
12.756,-0.940,-0.450
12.758,-0.950,-0.460
12.761,-0.950,-0.455
12.764,-0.955,-0.480
12.767,-0.975,-0.470
12.769,-0.960,-0.475
12.772,-0.965,-0.480
12.775,-0.965,-0.490
12.778,-0.975,-0.475
12.781,-0.965,-0.480
12.783,-0.955,-0.470
12.786,-0.945,-0.460
12.789,-0.985,-0.455
12.792,-0.975,-0.460
12.794,-0.960,-0.455
12.797,-0.965,-0.455
12.800,-0.980,-0.465
12.803,-0.985,-0.495
12.806,-0.985,-0.485
12.808,-0.990,-0.470
12.811,-0.980,-0.485
12.814,-0.970,-0.460
12.817,-0.965,-0.460
12.819,-0.960,-0.450
12.822,-0.920,-0.460
12.825,-0.935,-0.455
12.828,-0.935,-0.475
12.831,-0.950,-0.485
12.833,-0.955,-0.495
12.836,-0.965,-0.495
12.839,-0.970,-0.505
12.842,-0.970,-0.485
12.844,-0.975,-0.500
12.847,-0.980,-0.470
12.850,-0.970,-0.475
12.853,-0.950,-0.455
12.856,-0.940,-0.475
12.858,-0.950,-0.470
12.861,-0.960,-0.480
12.864,-0.960,-0.490
12.867,-0.960,-0.495
12.869,-0.970,-0.510
12.872,-0.960,-0.500
12.875,-0.955,-0.505
12.878,-0.970,-0.485
12.881,-0.960,-0.490
12.883,-0.960,-0.495
12.886,-0.950,-0.480
12.889,-0.935,-0.465
12.892,-0.945,-0.475
12.894,-0.945,-0.475
12.897,-0.955,-0.500
12.900,-0.965,-0.500
12.903,-0.965,-0.505
12.906,-0.960,-0.505
12.908,-0.970,-0.500
12.911,-0.960,-0.495
12.914,-0.950,-0.480
12.917,-0.945,-0.475
12.919,-0.935,-0.465
12.922,-0.920,-0.465
12.925,-0.925,-0.475
12.928,-0.930,-0.465
12.931,-0.935,-0.470
12.933,-0.940,-0.475
12.936,-0.950,-0.485
12.939,-0.950,-0.485
12.942,-0.960,-0.470
12.944,-0.965,-0.470
12.947,-0.950,-0.455
12.950,-0.955,-0.460
12.953,-0.935,-0.440
12.956,-0.930,-0.450
12.958,-0.925,-0.455
12.961,-0.930,-0.455
12.964,-0.935,-0.470
12.967,-0.955,-0.470
12.969,-0.945,-0.485
12.972,-0.950,-0.475
12.975,-0.950,-0.470
12.978,-0.955,-0.470
12.981,-0.955,-0.475
12.983,-0.945,-0.455
12.986,-0.930,-0.460
12.989,-0.925,-0.450
12.992,-0.930,-0.455
12.994,-0.930,-0.460
12.997,-0.940,-0.470
13.000,-0.940,-0.475
13.003,-0.950,-0.490
13.006,-0.950,-0.490
13.008,-0.960,-0.490
13.011,-0.950,-0.475
13.014,-0.945,-0.465
13.017,-0.925,-0.455
13.019,-0.920,-0.430
13.022,-0.920,-0.445
13.025,-0.915,-0.445
13.028,-0.920,-0.465
13.031,-0.930,-0.450
13.033,-0.935,-0.475
13.036,-0.945,-0.480
13.039,-0.955,-0.465
13.042,-0.955,-0.495
13.044,-0.950,-0.470
13.047,-0.935,-0.455
13.050,-0.945,-0.460
13.053,-0.935,-0.455
13.056,-0.915,-0.440
13.058,-0.905,-0.460
13.061,-0.910,-0.470
13.064,-0.910,-0.480
13.067,-0.915,-0.495
13.069,-0.925,-0.500
13.072,-0.935,-0.500
13.075,-0.935,-0.490
13.078,-0.945,-0.460
13.081,-0.925,-0.450
13.083,-0.925,-0.440
13.086,-0.915,-0.450
13.089,-0.900,-0.430
13.092,-0.905,-0.450
13.094,-0.905,-0.450
13.097,-0.895,-0.470
13.100,-0.920,-0.455
13.103,-0.905,-0.465
13.106,-0.905,-0.465
13.108,-0.900,-0.470
13.111,-0.900,-0.460
13.114,-0.875,-0.450
13.117,-0.870,-0.425
13.119,-0.840,-0.425
13.122,-0.840,-0.440
13.125,-0.820,-0.440
13.128,-0.825,-0.435
13.131,-0.830,-0.435
13.133,-0.825,-0.435
13.136,-0.825,-0.445
13.139,-0.810,-0.435
13.142,-0.810,-0.415
13.144,-0.780,-0.405
13.147,-0.765,-0.380
13.150,-0.735,-0.365
13.153,-0.725,-0.335
13.156,-0.700,-0.320
13.158,-0.715,-0.310
13.161,-0.710,-0.290
13.164,-0.740,-0.280
13.167,-0.760,-0.290
13.169,-0.775,-0.290
13.172,-0.785,-0.300
13.175,-0.800,-0.305
13.178,-0.810,-0.295
13.181,-0.820,-0.295
13.183,-0.815,-0.290
13.186,-0.820,-0.280
13.189,-0.830,-0.300
13.192,-0.845,-0.305
13.194,-0.880,-0.315
13.197,-0.870,-0.340
13.200,-0.880,-0.375
13.203,-0.900,-0.400
13.206,-0.905,-0.425
13.208,-0.905,-0.425
13.211,-0.915,-0.435
13.214,-0.920,-0.430
13.217,-0.915,-0.420
13.219,-0.900,-0.425
13.222,-0.900,-0.435
13.225,-0.905,-0.440
13.228,-0.910,-0.455
13.231,-0.940,-0.470
13.233,-0.945,-0.480
13.236,-0.945,-0.475
13.239,-0.940,-0.480
13.242,-0.965,-0.495
13.244,-0.960,-0.460
13.247,-0.945,-0.455
13.250,-0.920,-0.450
13.253,-0.910,-0.455
13.256,-0.895,-0.465
13.258,-0.900,-0.455
13.261,-0.905,-0.460
13.264,-0.915,-0.485
13.267,-0.920,-0.470
13.269,-0.905,-0.480
13.272,-0.915,-0.475
13.275,-0.920,-0.485
13.278,-0.920,-0.460
13.281,-0.905,-0.475
13.283,-0.880,-0.460
13.286,-0.845,-0.460
13.289,-0.785,-0.445
13.292,-0.715,-0.415
13.294,-0.610,-0.325
13.297,-0.500,-0.200
13.300,-0.365,-0.020
13.303,-0.205,0.220
13.306,-0.080,0.475
13.308,-0.020,0.750
13.311,-0.035,0.995
13.314,-0.130,1.175
13.317,-0.320,1.260
13.319,-0.560,1.215
13.322,-0.835,1.005
13.325,-1.095,0.720
13.328,-1.330,0.335
13.331,-1.540,-0.055
13.333,-1.640,-0.410
13.336,-1.650,-0.660
13.339,-1.565,-0.760
13.342,-1.460,-0.740
13.344,-1.340,-0.645
13.347,-1.230,-0.540
13.350,-1.150,-0.470
13.353,-1.065,-0.445
13.356,-1.015,-0.415
13.358,-0.970,-0.430
13.361,-0.900,-0.425
13.364,-0.860,-0.445
13.367,-0.845,-0.430
13.369,-0.865,-0.415
13.372,-0.860,-0.440
13.375,-0.870,-0.435
13.378,-0.870,-0.425
13.381,-0.860,-0.425
13.383,-0.830,-0.410
13.386,-0.830,-0.405
13.389,-0.805,-0.400
13.392,-0.795,-0.405
13.394,-0.805,-0.405
13.397,-0.810,-0.415
13.400,-0.795,-0.415
13.403,-0.795,-0.425
13.406,-0.805,-0.425
13.408,-0.805,-0.410
13.411,-0.810,-0.400
13.414,-0.800,-0.390
13.417,-0.795,-0.385
13.419,-0.780,-0.380
13.422,-0.755,-0.370
13.425,-0.755,-0.375
13.428,-0.755,-0.380
13.431,-0.760,-0.380
13.433,-0.755,-0.380
13.436,-0.775,-0.385
13.439,-0.765,-0.400
13.442,-0.770,-0.390
13.444,-0.770,-0.380
13.447,-0.760,-0.355
13.450,-0.745,-0.345
13.453,-0.735,-0.345
13.456,-0.720,-0.335
13.458,-0.725,-0.345
13.461,-0.715,-0.355
13.464,-0.705,-0.355
13.467,-0.715,-0.345
13.469,-0.735,-0.360
13.472,-0.730,-0.345
13.475,-0.715,-0.340
13.478,-0.715,-0.320
13.481,-0.710,-0.295
13.483,-0.670,-0.280
13.486,-0.660,-0.270
13.489,-0.660,-0.265
13.492,-0.665,-0.270
13.494,-0.660,-0.265
13.497,-0.650,-0.255
13.500,-0.640,-0.250
13.503,-0.650,-0.250
13.506,-0.665,-0.245
13.508,-0.650,-0.230
13.511,-0.620,-0.210
13.514,-0.590,-0.190
13.517,-0.570,-0.175
13.519,-0.555,-0.145
13.522,-0.535,-0.140
13.525,-0.525,-0.105
13.528,-0.520,-0.120
13.531,-0.510,-0.110
13.533,-0.500,-0.105
13.536,-0.490,-0.095
13.539,-0.465,-0.085
13.542,-0.470,-0.045
13.544,-0.450,-0.035
13.547,-0.415,-0.010
13.550,-0.400,0.025
13.553,-0.375,0.040
13.556,-0.330,0.045
13.558,-0.340,0.075
13.561,-0.310,0.105
13.564,-0.300,0.100
13.567,-0.285,0.115
13.569,-0.290,0.120
13.572,-0.275,0.150
13.575,-0.265,0.155
13.578,-0.255,0.175
13.581,-0.210,0.200
13.583,-0.195,0.215
13.586,-0.165,0.240
13.589,-0.160,0.245
13.592,-0.150,0.240
13.594,-0.150,0.250
13.597,-0.145,0.255
13.600,-0.150,0.240
13.603,-0.160,0.240
13.606,-0.175,0.225
13.608,-0.170,0.235
13.611,-0.185,0.245
13.614,-0.175,0.250
13.617,-0.195,0.240
13.619,-0.185,0.235
13.622,-0.195,0.230
13.625,-0.230,0.185
13.628,-0.260,0.145
13.631,-0.270,0.120
13.633,-0.310,0.095
13.636,-0.335,0.045
13.639,-0.375,0.000
13.642,-0.415,-0.020
13.644,-0.440,-0.035
13.647,-0.475,-0.065
13.650,-0.495,-0.100
13.653,-0.515,-0.115
13.656,-0.535,-0.150
13.658,-0.565,-0.190
13.661,-0.600,-0.215
13.664,-0.620,-0.245
13.667,-0.650,-0.295
13.669,-0.685,-0.320
13.672,-0.705,-0.345
13.675,-0.730,-0.360
13.678,-0.765,-0.365
13.681,-0.760,-0.365
13.683,-0.765,-0.375
13.686,-0.760,-0.385
13.689,-0.760,-0.400
13.692,-0.785,-0.410
13.694,-0.785,-0.410
13.697,-0.790,-0.430
13.700,-0.805,-0.450
13.703,-0.835,-0.450
13.706,-0.835,-0.455
13.708,-0.855,-0.450
13.711,-0.850,-0.445
13.714,-0.845,-0.435
13.717,-0.830,-0.435
13.719,-0.830,-0.425
13.722,-0.815,-0.440
13.725,-0.830,-0.445
13.728,-0.835,-0.445
13.731,-0.840,-0.455
13.733,-0.850,-0.490
13.736,-0.845,-0.490
13.739,-0.860,-0.500
13.742,-0.855,-0.490
13.744,-0.860,-0.490
13.747,-0.840,-0.480
13.750,-0.845,-0.455
13.753,-0.840,-0.450
13.756,-0.815,-0.450
13.758,-0.825,-0.460
13.761,-0.815,-0.450
13.764,-0.815,-0.455
13.767,-0.825,-0.455
13.769,-0.830,-0.460
13.772,-0.835,-0.465
13.775,-0.845,-0.460
13.778,-0.845,-0.435
13.781,-0.835,-0.430
13.783,-0.825,-0.435
13.786,-0.805,-0.425
13.789,-0.800,-0.425
13.792,-0.805,-0.430
13.794,-0.800,-0.415
13.797,-0.805,-0.435
13.800,-0.820,-0.440
13.803,-0.820,-0.440
13.806,-0.825,-0.440
13.808,-0.835,-0.450
13.811,-0.815,-0.440
13.814,-0.805,-0.435
13.817,-0.800,-0.415
13.819,-0.785,-0.410
13.822,-0.785,-0.410
13.825,-0.790,-0.415
13.828,-0.795,-0.430
13.831,-0.815,-0.430
13.833,-0.800,-0.455
13.836,-0.820,-0.455
13.839,-0.830,-0.465
13.842,-0.845,-0.455
13.844,-0.850,-0.445
13.847,-0.835,-0.425
13.850,-0.825,-0.425
13.853,-0.820,-0.430
13.856,-0.810,-0.425
13.858,-0.820,-0.440
13.861,-0.815,-0.440
13.864,-0.830,-0.445
13.867,-0.845,-0.470
13.869,-0.865,-0.480
13.872,-0.860,-0.480
13.875,-0.870,-0.465
13.878,-0.885,-0.450
13.881,-0.865,-0.475
13.883,-0.870,-0.460
13.886,-0.850,-0.440
13.889,-0.850,-0.440
13.892,-0.850,-0.445
13.894,-0.850,-0.450
13.897,-0.860,-0.460
13.900,-0.865,-0.470
13.903,-0.875,-0.470
13.906,-0.885,-0.475
13.908,-0.885,-0.485
13.911,-0.890,-0.455
13.914,-0.885,-0.465
13.917,-0.875,-0.450
13.919,-0.865,-0.455
13.922,-0.855,-0.440
13.925,-0.870,-0.455
13.928,-0.870,-0.445
13.931,-0.870,-0.470
13.933,-0.890,-0.480
13.936,-0.895,-0.465
13.939,-0.905,-0.475
13.942,-0.915,-0.480
13.944,-0.900,-0.485
13.947,-0.905,-0.460
13.950,-0.890,-0.455
13.953,-0.890,-0.440
13.956,-0.880,-0.440
13.958,-0.885,-0.460
13.961,-0.890,-0.465
13.964,-0.880,-0.470
13.967,-0.890,-0.480
13.969,-0.890,-0.480
13.972,-0.905,-0.495
13.975,-0.925,-0.480
13.978,-0.920,-0.495
13.981,-0.915,-0.475
13.983,-0.900,-0.465
13.986,-0.905,-0.450
13.989,-0.895,-0.460
13.992,-0.890,-0.460
13.994,-0.880,-0.465
13.997,-0.885,-0.475
14.000,-0.895,-0.485
14.003,-0.910,-0.485
14.006,-0.905,-0.475
14.008,-0.930,-0.475
14.011,-0.910,-0.470
14.014,-0.905,-0.480
14.017,-0.895,-0.455
14.019,-0.900,-0.460
14.022,-0.885,-0.455
14.025,-0.900,-0.455
14.028,-0.880,-0.465
14.031,-0.895,-0.485
14.033,-0.900,-0.485
14.036,-0.920,-0.490
14.039,-0.915,-0.485
14.042,-0.920,-0.480
14.044,-0.910,-0.480
14.047,-0.910,-0.470
14.050,-0.900,-0.460
14.053,-0.895,-0.465
14.056,-0.895,-0.460
14.058,-0.885,-0.465
14.061,-0.900,-0.465
14.064,-0.910,-0.495
14.067,-0.900,-0.490
14.069,-0.895,-0.490
14.072,-0.920,-0.500
14.075,-0.925,-0.500
14.078,-0.920,-0.490
14.081,-0.920,-0.460
14.083,-0.910,-0.465
14.086,-0.895,-0.450
14.089,-0.895,-0.465
14.092,-0.870,-0.465
14.094,-0.880,-0.460
14.097,-0.890,-0.485
14.100,-0.895,-0.470
14.103,-0.885,-0.485
14.106,-0.890,-0.480
14.108,-0.910,-0.490
14.111,-0.900,-0.460
14.114,-0.900,-0.460
14.117,-0.890,-0.460
14.119,-0.895,-0.450
14.122,-0.880,-0.450
14.125,-0.895,-0.455
14.128,-0.905,-0.455
14.131,-0.905,-0.465
14.133,-0.905,-0.465
14.136,-0.910,-0.490
14.139,-0.915,-0.480
14.142,-0.910,-0.475
14.144,-0.910,-0.470
14.147,-0.895,-0.455
14.150,-0.885,-0.465
14.153,-0.870,-0.455
14.156,-0.865,-0.460
14.158,-0.885,-0.460
14.161,-0.880,-0.470
14.164,-0.895,-0.465
14.167,-0.895,-0.495
14.169,-0.885,-0.480
14.172,-0.885,-0.485
14.175,-0.895,-0.475
14.178,-0.885,-0.480
14.181,-0.890,-0.455
14.183,-0.890,-0.460
14.186,-0.880,-0.445
14.189,-0.870,-0.445
14.192,-0.875,-0.445
14.194,-0.865,-0.450
14.197,-0.865,-0.465
14.200,-0.875,-0.485
14.203,-0.890,-0.485
14.206,-0.890,-0.475
14.208,-0.895,-0.480
14.211,-0.890,-0.485
14.214,-0.885,-0.465
14.217,-0.880,-0.465
14.219,-0.885,-0.465
14.222,-0.870,-0.460
14.225,-0.885,-0.455
14.228,-0.890,-0.460
14.231,-0.890,-0.465
14.233,-0.890,-0.495
14.236,-0.890,-0.475
14.239,-0.890,-0.495
14.242,-0.900,-0.510
14.244,-0.910,-0.495
14.247,-0.895,-0.480
14.250,-0.895,-0.465
14.253,-0.890,-0.460
14.256,-0.875,-0.470
14.258,-0.870,-0.470
14.261,-0.880,-0.460
14.264,-0.880,-0.475
14.267,-0.890,-0.480
14.269,-0.890,-0.490
14.272,-0.890,-0.510
14.275,-0.920,-0.490
14.278,-0.895,-0.490
14.281,-0.905,-0.465
14.283,-0.880,-0.455
14.286,-0.865,-0.445
14.289,-0.855,-0.440
14.292,-0.855,-0.450
14.294,-0.855,-0.455
14.297,-0.860,-0.485
14.300,-0.850,-0.465
14.303,-0.865,-0.480
14.306,-0.870,-0.475
14.308,-0.890,-0.475
14.311,-0.890,-0.480
14.314,-0.865,-0.445
14.317,-0.880,-0.460
14.319,-0.845,-0.445
14.322,-0.835,-0.435
14.325,-0.825,-0.435
14.328,-0.810,-0.435
14.331,-0.825,-0.445
14.333,-0.810,-0.460
14.336,-0.785,-0.480
14.339,-0.775,-0.480
14.342,-0.785,-0.475
14.344,-0.780,-0.455
14.347,-0.775,-0.415
14.350,-0.765,-0.410
14.353,-0.750,-0.385
14.356,-0.715,-0.380
14.358,-0.705,-0.375
14.361,-0.685,-0.380
14.364,-0.685,-0.375
14.367,-0.685,-0.365
14.369,-0.695,-0.365
14.372,-0.705,-0.340
14.375,-0.720,-0.345
14.378,-0.730,-0.320
14.381,-0.735,-0.300
14.383,-0.735,-0.295
14.386,-0.745,-0.290
14.389,-0.735,-0.285
14.392,-0.735,-0.305
14.394,-0.750,-0.305
14.397,-0.765,-0.325
14.400,-0.775,-0.345
14.403,-0.795,-0.355
14.406,-0.830,-0.360
14.408,-0.850,-0.365
14.411,-0.875,-0.370
14.414,-0.875,-0.385
14.417,-0.870,-0.390
14.419,-0.855,-0.385
14.422,-0.845,-0.410
14.425,-0.860,-0.415
14.428,-0.870,-0.440
14.431,-0.870,-0.465
14.433,-0.895,-0.460
14.436,-0.885,-0.475
14.439,-0.890,-0.490
14.442,-0.895,-0.485
14.444,-0.900,-0.480
14.447,-0.895,-0.460
14.450,-0.900,-0.465
14.453,-0.895,-0.465
14.456,-0.880,-0.465
14.458,-0.885,-0.470
14.461,-0.880,-0.490
14.464,-0.895,-0.490
14.467,-0.875,-0.495
14.469,-0.900,-0.510
14.472,-0.925,-0.525
14.475,-0.935,-0.495
14.478,-0.920,-0.495
14.481,-0.910,-0.485
14.483,-0.910,-0.495
14.486,-0.900,-0.495
14.489,-0.885,-0.495
14.492,-0.880,-0.480
14.494,-0.865,-0.475
14.497,-0.870,-0.490
14.500,-0.870,-0.500
14.503,-0.875,-0.505
14.506,-0.850,-0.530
14.508,-0.805,-0.510
14.511,-0.745,-0.475
14.514,-0.645,-0.385
14.517,-0.505,-0.270
14.519,-0.375,-0.075
14.522,-0.225,0.145
14.525,-0.095,0.375
14.528,-0.020,0.615
14.531,-0.030,0.805
14.533,-0.115,0.980
14.536,-0.295,1.055
14.539,-0.530,1.030
14.542,-0.805,0.885
14.544,-1.065,0.670
14.547,-1.280,0.360
14.550,-1.475,0.050
14.553,-1.600,-0.285
14.556,-1.625,-0.560
14.558,-1.595,-0.735
14.561,-1.510,-0.800
14.564,-1.415,-0.775
14.567,-1.315,-0.695
14.569,-1.240,-0.620
14.572,-1.180,-0.565
14.575,-1.125,-0.525
14.578,-1.065,-0.505
14.581,-0.990,-0.485
14.583,-0.935,-0.475
14.586,-0.865,-0.435
14.589,-0.825,-0.435
14.592,-0.810,-0.440
14.594,-0.815,-0.455
14.597,-0.840,-0.460
14.600,-0.845,-0.470
14.603,-0.850,-0.475
14.606,-0.850,-0.490
14.608,-0.875,-0.480
14.611,-0.855,-0.485
14.614,-0.835,-0.455
14.617,-0.810,-0.460
14.619,-0.800,-0.425
14.622,-0.785,-0.425
14.625,-0.780,-0.440
14.628,-0.785,-0.435
14.631,-0.785,-0.435
14.633,-0.775,-0.440
14.636,-0.790,-0.455
14.639,-0.775,-0.455
14.642,-0.790,-0.445
14.644,-0.790,-0.430
14.647,-0.770,-0.425
14.650,-0.750,-0.425
14.653,-0.755,-0.405
14.656,-0.755,-0.400
14.658,-0.730,-0.380
14.661,-0.735,-0.385
14.664,-0.760,-0.425
14.667,-0.770,-0.395
14.669,-0.770,-0.420
14.672,-0.760,-0.410
14.675,-0.775,-0.415
14.678,-0.775,-0.395
14.681,-0.770,-0.390
14.683,-0.740,-0.365
14.686,-0.725,-0.355
14.689,-0.710,-0.345
14.692,-0.705,-0.350
14.694,-0.705,-0.355
14.697,-0.695,-0.370
14.700,-0.700,-0.350
14.703,-0.715,-0.345
14.706,-0.705,-0.375
14.708,-0.705,-0.350
14.711,-0.710,-0.340
14.714,-0.690,-0.320
14.717,-0.685,-0.295
14.719,-0.675,-0.295
14.722,-0.660,-0.275
14.725,-0.645,-0.280
14.728,-0.645,-0.280
14.731,-0.635,-0.285
14.733,-0.630,-0.280
14.736,-0.640,-0.280
14.739,-0.630,-0.280
14.742,-0.630,-0.275
14.744,-0.615,-0.250
14.747,-0.610,-0.220
14.750,-0.585,-0.210
14.753,-0.560,-0.200
14.756,-0.565,-0.170
14.758,-0.540,-0.175
14.761,-0.535,-0.160
14.764,-0.510,-0.170
14.767,-0.520,-0.135
14.769,-0.500,-0.140
14.772,-0.485,-0.125
14.775,-0.475,-0.100
14.778,-0.460,-0.070
14.781,-0.420,-0.045
14.783,-0.400,-0.005
14.786,-0.390,0.005
14.789,-0.340,0.025
14.792,-0.320,0.040
14.794,-0.320,0.035
14.797,-0.320,0.060
14.800,-0.305,0.065
14.803,-0.290,0.070
14.806,-0.290,0.075
14.808,-0.265,0.085
14.811,-0.260,0.110
14.814,-0.235,0.145
14.817,-0.215,0.155
14.819,-0.205,0.175
14.822,-0.185,0.185
14.825,-0.185,0.195
14.828,-0.175,0.195
14.831,-0.170,0.185
14.833,-0.155,0.200
14.836,-0.170,0.195
14.839,-0.165,0.185
14.842,-0.175,0.185
14.844,-0.170,0.190
14.847,-0.165,0.205
14.850,-0.195,0.180
14.853,-0.175,0.200
14.856,-0.190,0.190
14.858,-0.200,0.185
14.861,-0.235,0.150
14.864,-0.260,0.100
14.867,-0.295,0.090
14.869,-0.320,0.055
14.872,-0.355,0.015
14.875,-0.385,-0.020
14.878,-0.415,-0.025
14.881,-0.445,-0.050
14.883,-0.465,-0.090
14.886,-0.485,-0.095
14.889,-0.505,-0.130
14.892,-0.540,-0.160
14.894,-0.565,-0.210
14.897,-0.605,-0.240
14.900,-0.640,-0.290
14.903,-0.660,-0.310
14.906,-0.700,-0.350
14.908,-0.710,-0.375
14.911,-0.740,-0.365
14.914,-0.760,-0.390
14.917,-0.750,-0.380
14.919,-0.750,-0.380
14.922,-0.750,-0.400
14.925,-0.760,-0.395
14.928,-0.770,-0.410
14.931,-0.795,-0.450
14.933,-0.795,-0.455
14.936,-0.810,-0.475
14.939,-0.820,-0.470
14.942,-0.840,-0.485
14.944,-0.840,-0.480
14.947,-0.830,-0.470
14.950,-0.835,-0.475
14.953,-0.825,-0.470
14.956,-0.820,-0.465
14.958,-0.820,-0.490
14.961,-0.820,-0.480
14.964,-0.830,-0.495
14.967,-0.840,-0.490
14.969,-0.840,-0.510
14.972,-0.855,-0.505
14.975,-0.845,-0.510
14.978,-0.855,-0.495
14.981,-0.840,-0.500
14.983,-0.830,-0.500
14.986,-0.835,-0.490
14.989,-0.810,-0.485
14.992,-0.820,-0.490
14.994,-0.820,-0.485
14.997,-0.820,-0.495
15.000,-0.825,-0.505
15.003,-0.845,-0.515
15.006,-0.855,-0.505
15.008,-0.865,-0.495
15.011,-0.850,-0.485
15.014,-0.845,-0.470
15.017,-0.825,-0.470
15.019,-0.835,-0.455
15.022,-0.840,-0.450
15.025,-0.820,-0.460
15.028,-0.810,-0.450
15.031,-0.815,-0.475
15.033,-0.820,-0.470
15.036,-0.810,-0.490
15.039,-0.835,-0.485
15.042,-0.840,-0.465
15.044,-0.840,-0.470
15.047,-0.830,-0.475
15.050,-0.835,-0.455
15.053,-0.825,-0.450
15.056,-0.825,-0.440
15.058,-0.815,-0.450
15.061,-0.825,-0.450
15.064,-0.830,-0.460
15.067,-0.835,-0.470
15.069,-0.850,-0.460
15.072,-0.845,-0.465
15.075,-0.850,-0.455
15.078,-0.855,-0.450
15.081,-0.845,-0.445
15.083,-0.840,-0.425
15.086,-0.835,-0.440
15.089,-0.840,-0.435
15.092,-0.845,-0.450
15.094,-0.850,-0.460
15.097,-0.875,-0.460
15.100,-0.870,-0.470
15.103,-0.885,-0.485
15.106,-0.885,-0.480
15.108,-0.895,-0.485
15.111,-0.885,-0.465
15.114,-0.890,-0.470
15.117,-0.880,-0.465
15.119,-0.880,-0.445
15.122,-0.870,-0.445
15.125,-0.875,-0.450
15.128,-0.880,-0.460
15.131,-0.895,-0.460
15.133,-0.910,-0.470
15.136,-0.920,-0.485
15.139,-0.925,-0.505
15.142,-0.915,-0.510
15.144,-0.920,-0.485
15.147,-0.930,-0.475
15.150,-0.915,-0.470
15.153,-0.900,-0.460
15.156,-0.890,-0.455
15.158,-0.890,-0.465
15.161,-0.895,-0.465
15.164,-0.905,-0.480
15.167,-0.910,-0.495
15.169,-0.915,-0.500
15.172,-0.915,-0.505
15.175,-0.925,-0.510
15.178,-0.925,-0.485
15.181,-0.915,-0.475
15.183,-0.915,-0.475
15.186,-0.910,-0.455
15.189,-0.915,-0.450
15.192,-0.905,-0.470
15.194,-0.905,-0.475
15.197,-0.910,-0.500
15.200,-0.910,-0.515
15.203,-0.925,-0.510
15.206,-0.930,-0.505
15.208,-0.930,-0.515
15.211,-0.925,-0.505
15.214,-0.915,-0.480
15.217,-0.915,-0.475
15.219,-0.905,-0.470
15.222,-0.905,-0.460
15.225,-0.900,-0.475
15.228,-0.920,-0.465
15.231,-0.920,-0.475
15.233,-0.925,-0.500
15.236,-0.925,-0.520
15.239,-0.940,-0.515
15.242,-0.945,-0.515
15.244,-0.940,-0.505
15.247,-0.930,-0.500
15.250,-0.935,-0.490
15.253,-0.930,-0.465
15.256,-0.915,-0.480
15.258,-0.920,-0.455
15.261,-0.905,-0.475
15.264,-0.900,-0.485
15.267,-0.920,-0.485
15.269,-0.915,-0.475
15.272,-0.915,-0.490
15.275,-0.935,-0.465
15.278,-0.945,-0.490
15.281,-0.940,-0.485
15.283,-0.930,-0.460
15.286,-0.925,-0.465
15.289,-0.910,-0.490
15.292,-0.900,-0.475
15.294,-0.910,-0.475
15.297,-0.925,-0.480
15.300,-0.920,-0.485
15.303,-0.920,-0.490
15.306,-0.930,-0.485
15.308,-0.940,-0.480
15.311,-0.920,-0.475
15.314,-0.925,-0.470
15.317,-0.910,-0.465
15.319,-0.910,-0.455
15.322,-0.900,-0.435
15.325,-0.910,-0.455
15.328,-0.915,-0.460
15.331,-0.925,-0.465
15.333,-0.915,-0.460
15.336,-0.935,-0.485
15.339,-0.945,-0.475
15.342,-0.935,-0.495
15.344,-0.955,-0.460
15.347,-0.925,-0.470
15.350,-0.925,-0.440
15.353,-0.925,-0.440
15.356,-0.900,-0.445
15.358,-0.905,-0.460
15.361,-0.910,-0.450
15.364,-0.915,-0.475
15.367,-0.925,-0.470
15.369,-0.930,-0.470
15.372,-0.945,-0.465
15.375,-0.940,-0.485
15.378,-0.950,-0.470
15.381,-0.950,-0.460
15.383,-0.915,-0.460
15.386,-0.915,-0.435
15.389,-0.910,-0.450
15.392,-0.910,-0.450
15.394,-0.900,-0.460
15.397,-0.925,-0.475
15.400,-0.920,-0.460
15.403,-0.930,-0.480
15.406,-0.920,-0.475
15.408,-0.950,-0.480
15.411,-0.935,-0.480
15.414,-0.930,-0.455
15.417,-0.920,-0.435
15.419,-0.920,-0.420
15.422,-0.915,-0.430
15.425,-0.910,-0.450
15.428,-0.900,-0.455
15.431,-0.915,-0.460
15.433,-0.915,-0.475
15.436,-0.925,-0.480
15.439,-0.930,-0.470
15.442,-0.935,-0.465
15.444,-0.940,-0.455
15.447,-0.930,-0.445
15.450,-0.925,-0.450
15.453,-0.925,-0.425
15.456,-0.900,-0.405
15.458,-0.900,-0.425
15.461,-0.895,-0.435
15.464,-0.905,-0.440
15.467,-0.915,-0.430
15.469,-0.920,-0.440
15.472,-0.940,-0.445
15.475,-0.950,-0.445
15.478,-0.945,-0.440
15.481,-0.945,-0.430
15.483,-0.925,-0.415
15.486,-0.905,-0.420
15.489,-0.900,-0.405
15.492,-0.890,-0.410
15.494,-0.890,-0.420
15.497,-0.910,-0.425
15.500,-0.910,-0.430
15.503,-0.925,-0.435
15.506,-0.935,-0.435
15.508,-0.930,-0.440
15.511,-0.925,-0.435
15.514,-0.905,-0.420
15.517,-0.900,-0.420
15.519,-0.880,-0.405
15.522,-0.865,-0.405
15.525,-0.870,-0.405
15.528,-0.840,-0.415
15.531,-0.835,-0.420
15.533,-0.830,-0.420
15.536,-0.825,-0.445
15.539,-0.830,-0.435
15.542,-0.835,-0.430
15.544,-0.840,-0.410
15.547,-0.830,-0.400
15.550,-0.805,-0.365
15.553,-0.760,-0.340
15.556,-0.730,-0.330
15.558,-0.725,-0.330
15.561,-0.720,-0.315
15.564,-0.725,-0.310
15.567,-0.735,-0.300
15.569,-0.740,-0.290
15.572,-0.775,-0.290
15.575,-0.775,-0.270
15.578,-0.790,-0.270
15.581,-0.805,-0.270
15.583,-0.800,-0.260
15.586,-0.800,-0.265
15.589,-0.790,-0.265
15.592,-0.795,-0.280
15.594,-0.820,-0.285
15.597,-0.840,-0.300
15.600,-0.870,-0.330
15.603,-0.895,-0.340
15.606,-0.910,-0.365
15.608,-0.935,-0.390
15.611,-0.935,-0.390
15.614,-0.925,-0.400
15.617,-0.920,-0.405
15.619,-0.910,-0.410
15.622,-0.905,-0.400
15.625,-0.895,-0.415
15.628,-0.905,-0.405
15.631,-0.910,-0.420
15.633,-0.925,-0.435
15.636,-0.930,-0.450
15.639,-0.950,-0.475
15.642,-0.955,-0.460
15.644,-0.955,-0.470
15.647,-0.945,-0.450
15.650,-0.925,-0.440
15.653,-0.925,-0.440
15.656,-0.930,-0.440
15.658,-0.935,-0.435
15.661,-0.935,-0.440
15.664,-0.925,-0.450
15.667,-0.935,-0.455
15.669,-0.940,-0.460
15.672,-0.955,-0.465
15.675,-0.965,-0.470
15.678,-0.940,-0.460
15.681,-0.920,-0.445
15.683,-0.905,-0.435
15.686,-0.895,-0.415
15.689,-0.885,-0.420
15.692,-0.870,-0.430
15.694,-0.820,-0.415
15.697,-0.765,-0.410
15.700,-0.690,-0.340
15.703,-0.585,-0.220
15.706,-0.465,-0.035
15.708,-0.310,0.205
15.711,-0.200,0.470
15.714,-0.090,0.740
15.717,-0.090,0.995
15.719,-0.200,1.155
15.722,-0.400,1.200
15.725,-0.675,1.095
15.728,-0.960,0.870
15.731,-1.245,0.535
15.733,-1.495,0.115
15.736,-1.675,-0.295
15.739,-1.765,-0.665
15.742,-1.730,-0.895
15.744,-1.625,-0.950
15.747,-1.510,-0.865
15.750,-1.375,-0.715
15.753,-1.280,-0.625
15.756,-1.215,-0.550
15.758,-1.150,-0.525
15.761,-1.090,-0.500
15.764,-1.030,-0.495
15.767,-0.975,-0.485
15.769,-0.930,-0.475
15.772,-0.875,-0.445
15.775,-0.870,-0.440
15.778,-0.855,-0.425
15.781,-0.865,-0.420
15.783,-0.855,-0.420
15.786,-0.855,-0.425
15.789,-0.830,-0.400
15.792,-0.835,-0.415
15.794,-0.835,-0.410
15.797,-0.815,-0.420
15.800,-0.810,-0.420
15.803,-0.820,-0.425
15.806,-0.825,-0.425
15.808,-0.815,-0.415
15.811,-0.805,-0.410
15.814,-0.795,-0.410
15.817,-0.785,-0.390
15.819,-0.780,-0.380
15.822,-0.760,-0.365
15.825,-0.750,-0.380
15.828,-0.750,-0.390
15.831,-0.750,-0.380
15.833,-0.780,-0.390
15.836,-0.760,-0.390
15.839,-0.765,-0.390
15.842,-0.760,-0.400
15.844,-0.765,-0.370
15.847,-0.770,-0.370
15.850,-0.735,-0.340
15.853,-0.735,-0.325
15.856,-0.715,-0.320
15.858,-0.705,-0.335
15.861,-0.705,-0.315
15.864,-0.700,-0.320
15.867,-0.720,-0.335
15.869,-0.720,-0.335
15.872,-0.740,-0.325
15.875,-0.740,-0.320
15.878,-0.715,-0.305
15.881,-0.725,-0.290
15.883,-0.705,-0.265
15.886,-0.685,-0.260
15.889,-0.675,-0.250
15.892,-0.655,-0.245
15.894,-0.665,-0.270
15.897,-0.645,-0.260
15.900,-0.655,-0.260
15.903,-0.655,-0.270
15.906,-0.655,-0.260
15.908,-0.655,-0.235
15.911,-0.645,-0.235
15.914,-0.630,-0.220
15.917,-0.615,-0.200
15.919,-0.580,-0.170
15.922,-0.570,-0.165
15.925,-0.570,-0.155
15.928,-0.535,-0.160
15.931,-0.550,-0.175
15.933,-0.545,-0.145
15.936,-0.535,-0.140
15.939,-0.555,-0.115
15.942,-0.530,-0.125
15.944,-0.510,-0.110
15.947,-0.480,-0.065
15.950,-0.450,-0.045
15.953,-0.435,-0.025
15.956,-0.395,0.005
15.958,-0.380,0.005
15.961,-0.370,0.015
15.964,-0.340,0.035
15.967,-0.320,0.035
15.969,-0.320,0.045
15.972,-0.320,0.060
15.975,-0.305,0.075
15.978,-0.300,0.105
15.981,-0.275,0.130
15.983,-0.250,0.140
15.986,-0.220,0.165
15.989,-0.210,0.185
15.992,-0.195,0.195
15.994,-0.185,0.205
15.997,-0.170,0.210
16.000,-0.175,0.205
16.003,-0.175,0.210
16.006,-0.175,0.205
16.008,-0.160,0.225
16.011,-0.170,0.215
16.014,-0.160,0.230
16.017,-0.150,0.235
16.019,-0.155,0.255
16.022,-0.150,0.255
16.025,-0.160,0.245
16.028,-0.170,0.215
16.031,-0.190,0.200
16.033,-0.215,0.180
16.036,-0.225,0.160
16.039,-0.270,0.140
16.042,-0.285,0.125
16.044,-0.300,0.080
16.047,-0.335,0.075
16.050,-0.360,0.050
16.053,-0.370,0.035
16.056,-0.395,-0.005
16.058,-0.410,-0.025
16.061,-0.435,-0.070
16.064,-0.460,-0.110
16.067,-0.505,-0.140
16.069,-0.530,-0.175
16.072,-0.570,-0.215
16.075,-0.595,-0.260
16.078,-0.625,-0.255
16.081,-0.645,-0.275
16.083,-0.660,-0.285
16.086,-0.670,-0.285
16.089,-0.680,-0.315
16.092,-0.685,-0.325
16.094,-0.705,-0.365
16.097,-0.710,-0.390
16.100,-0.725,-0.400
16.103,-0.735,-0.415
16.106,-0.760,-0.425
16.108,-0.765,-0.435
16.111,-0.770,-0.445
16.114,-0.775,-0.430
16.117,-0.770,-0.430
16.119,-0.750,-0.410
16.122,-0.765,-0.405
16.125,-0.765,-0.435
16.128,-0.780,-0.430
16.131,-0.785,-0.440
16.133,-0.785,-0.465
16.136,-0.785,-0.470
16.139,-0.790,-0.455
16.142,-0.790,-0.455
16.144,-0.790,-0.475
16.147,-0.775,-0.485
16.150,-0.780,-0.455
16.153,-0.775,-0.455
16.156,-0.770,-0.445
16.158,-0.755,-0.445
16.161,-0.780,-0.445
16.164,-0.765,-0.470
16.167,-0.765,-0.460
16.169,-0.775,-0.490
16.172,-0.775,-0.470
16.175,-0.795,-0.475
16.178,-0.785,-0.465
16.181,-0.780,-0.445
16.183,-0.790,-0.445
16.186,-0.775,-0.440
16.189,-0.755,-0.430
16.192,-0.755,-0.430
16.194,-0.755,-0.455
16.197,-0.760,-0.445
16.200,-0.750,-0.450
16.203,-0.755,-0.465
16.206,-0.765,-0.455
16.208,-0.770,-0.460
16.211,-0.775,-0.445
16.214,-0.765,-0.450
16.217,-0.765,-0.430
16.219,-0.755,-0.425
16.222,-0.745,-0.430
16.225,-0.745,-0.415
16.228,-0.745,-0.425
16.231,-0.760,-0.420
16.233,-0.770,-0.430
16.236,-0.775,-0.425
16.239,-0.765,-0.440
16.242,-0.775,-0.445
16.244,-0.765,-0.440
16.247,-0.765,-0.425
16.250,-0.760,-0.420
16.253,-0.755,-0.410
16.256,-0.760,-0.405
16.258,-0.755,-0.420
16.261,-0.760,-0.420
16.264,-0.765,-0.430
16.267,-0.780,-0.435
16.269,-0.780,-0.445
16.272,-0.790,-0.450
16.275,-0.795,-0.470
16.278,-0.810,-0.455
16.281,-0.810,-0.435
16.283,-0.800,-0.430
16.286,-0.825,-0.435
16.289,-0.800,-0.420
16.292,-0.780,-0.430
16.294,-0.770,-0.435
16.297,-0.790,-0.435
16.300,-0.800,-0.470
16.303,-0.805,-0.470
16.306,-0.810,-0.485
16.308,-0.820,-0.490
16.311,-0.820,-0.470
16.314,-0.825,-0.455
16.317,-0.815,-0.455
16.319,-0.815,-0.455
16.322,-0.795,-0.440
16.325,-0.815,-0.460
16.328,-0.805,-0.465
16.331,-0.805,-0.465
16.333,-0.815,-0.475
16.336,-0.825,-0.475
16.339,-0.820,-0.500
16.342,-0.830,-0.495
16.344,-0.825,-0.480
16.347,-0.840,-0.480
16.350,-0.825,-0.460
16.353,-0.815,-0.460
16.356,-0.815,-0.455
16.358,-0.825,-0.455
16.361,-0.810,-0.485
16.364,-0.815,-0.485
16.367,-0.820,-0.490
16.369,-0.840,-0.515
16.372,-0.850,-0.495
16.375,-0.850,-0.515
16.378,-0.845,-0.500
16.381,-0.830,-0.490
16.383,-0.820,-0.475
16.386,-0.825,-0.475
16.389,-0.810,-0.465
16.392,-0.800,-0.465
16.394,-0.795,-0.490
16.397,-0.805,-0.485
16.400,-0.820,-0.505
16.403,-0.830,-0.510
16.406,-0.845,-0.510
16.408,-0.855,-0.515
