Time[s] MLII[mV] MLII_Filtered[mV] V5[mV] V5_Filterred[mV]
0 -0.145 -0.14159 -0.065 -0.0666574
0.003 -0.145 -0.140673 -0.065 -0.0667489
0.006 -0.145 -0.139582 -0.065 -0.0677591
0.008 -0.145 -0.139447 -0.065 -0.0690323
0.011 -0.145 -0.139508 -0.065 -0.0701013
0.014 -0.145 -0.139327 -0.065 -0.0712291
0.017 -0.145 -0.139879 -0.065 -0.0725237
0.019 -0.145 -0.141223 -0.065 -0.0733949
0.022 -0.12 -0.144516 -0.08 -0.0734407
0.025 -0.135 -0.146907 -0.08 -0.0746224
0.028 -0.145 -0.148562 -0.085 -0.0753302
0.031 -0.15 -0.150937 -0.085 -0.0735028
0.033 -0.16 -0.153251 -0.075 -0.0702468
0.036 -0.155 -0.156819 -0.07 -0.0670546
0.039 -0.16 -0.162022 -0.07 -0.0640487
0.042 -0.175 -0.167689 -0.065 -0.0624534
0.044 -0.18 -0.17093 -0.055 -0.06034
0.047 -0.185 -0.171561 -0.05 -0.0585616
0.05 -0.17 -0.171754 -0.05 -0.0565103
0.053 -0.155 -0.168733 -0.04 -0.0560804
0.056 -0.175 -0.16814 -0.04 -0.0571151
0.058 -0.18 -0.167723 -0.055 -0.059302
0.061 -0.19 -0.168573 -0.075 -0.0619418
0.064 -0.18 -0.170878 -0.08 -0.0648447
0.067 -0.155 -0.173364 -0.085 -0.0674763
0.069 -0.135 -0.177723 -0.07 -0.0726855
0.072 -0.155 -0.184653 -0.08 -0.0805835
0.075 -0.19 -0.194 -0.08 -0.088269
0.078 -0.205 -0.205312 -0.09 -0.0942579
0.081 -0.235 -0.215268 -0.095 -0.0987136
0.083 -0.225 -0.223385 -0.09 -0.10102
0.086 -0.245 -0.231978 -0.095 -0.103338
0.089 -0.25 -0.241357 -0.11 -0.10584
0.092 -0.26 -0.251785 -0.12 -0.109823
0.094 -0.275 -0.261474 -0.145 -0.113588
0.097 -0.275 -0.268648 -0.135 -0.116631
0.1 -0.275 -0.271464 -0.105 -0.117254
0.103 -0.265 -0.272666 -0.095 -0.118321
0.106 -0.255 -0.275822 -0.105 -0.119637
0.108 -0.265 -0.278774 -0.12 -0.121317
0.111 -0.275 -0.282259 -0.135 -0.12185
0.114 -0.29 -0.283287 -0.125 -0.121432
0.117 -0.29 -0.284214 -0.125 -0.120785
0.119 -0.29 -0.283575 -0.115 -0.121254
0.122 -0.29 -0.284456 -0.115 -0.12389
0.125 -0.285 -0.285641 -0.125 -0.129392
0.128 -0.295 -0.28823 -0.14 -0.133645
0.131 -0.305 -0.289843 -0.14 -0.134877
0.133 -0.285 -0.289872 -0.13 -0.133271
0.136 -0.275 -0.287924 -0.125 -0.130373
0.139 -0.275 -0.286337 -0.14 -0.129562
0.142 -0.28 -0.284887 -0.145 -0.131263
0.144 -0.285 -0.284129 -0.15 -0.132841
0.147 -0.305 -0.283853 -0.15 -0.134653
0.15 -0.29 -0.286004 -0.13 -0.135566
0.153 -0.3 -0.289153 -0.115 -0.14015
0.156 -0.28 -0.291484 -0.125 -0.15091
0.158 -0.29 -0.296456 -0.135 -0.169188
0.161 -0.3 -0.306499 -0.16 -0.190013
0.164 -0.315 -0.322014 -0.195 -0.209008
0.167 -0.32 -0.342656 -0.2 -0.223112
0.169 -0.335 -0.366383 -0.205 -0.232916
0.172 -0.36 -0.392285 -0.225 -0.238074
0.175 -0.385 -0.418308 -0.255 -0.23731
0.178 -0.385 -0.444413 -0.3 -0.226566
0.181 -0.405 -0.461039 -0.29 -0.199771
0.183 -0.455 -0.459742 -0.235 -0.149081
0.186 -0.485 -0.430605 -0.13 -0.0728261
0.189 -0.485 -0.369704 -0.035 0.0201373
0.192 -0.425 -0.273903 0.05 0.109438
0.194 -0.33 -0.149217 0.12 0.181579
0.197 -0.22 -0.009696 0.2 0.234485
0.2 -0.07 0.124034 0.31 0.269235
0.203 0.12 0.236522 0.435 0.287659
0.206 0.375 0.320279 0.535 0.28619
0.208 0.62 0.374663 0.58 0.26383
0.211 0.78 0.400546 0.475 0.224408
0.214 0.84 0.397618 0.21 0.173549
0.217 0.765 0.366554 -0.085 0.114763
0.219 0.52 0.308197 -0.23 0.049799
0.222 0.17 0.225762 -0.25 -0.0164923
0.225 -0.165 0.125229 -0.215 -0.0820154
0.228 -0.365 0.0110886 -0.18 -0.143248
0.231 -0.435 -0.108341 -0.185 -0.191974
0.233 -0.425 -0.222507 -0.16 -0.223253
0.236 -0.37 -0.31765 -0.15 -0.233021
0.239 -0.33 -0.38467 -0.15 -0.221293
0.242 -0.325 -0.420979 -0.18 -0.196813
0.244 -0.335 -0.424024 -0.18 -0.174921
0.247 -0.345 -0.402416 -0.16 -0.16466
0.25 -0.33 -0.369848 -0.165 -0.163012
0.253 -0.325 -0.340695 -0.17 -0.166156
0.256 -0.315 -0.324696 -0.165 -0.169124
0.258 -0.31 -0.320459 -0.185 -0.171373
0.261 -0.32 -0.32252 -0.185 -0.174425
0.264 -0.335 -0.326858 -0.185 -0.174658
0.267 -0.34 -0.328542 -0.17 -0.174539
0.269 -0.325 -0.327913 -0.16 -0.174603
0.272 -0.345 -0.328694 -0.155 -0.177395
0.275 -0.335 -0.330789 -0.175 -0.179653
0.278 -0.33 -0.334791 -0.195 -0.180059
0.281 -0.335 -0.336273 -0.185 -0.180147
0.283 -0.33 -0.33701 -0.185 -0.178955
0.286 -0.325 -0.335837 -0.175 -0.177772
0.289 -0.33 -0.333155 -0.175 -0.178444
0.292 -0.33 -0.331229 -0.195 -0.179977
0.294 -0.345 -0.330075 -0.19 -0.181239
0.297 -0.355 -0.329461 -0.18 -0.180521
0.3 -0.335 -0.327628 -0.165 -0.17849
0.303 -0.325 -0.328025 -0.17 -0.176303
0.306 -0.305 -0.329438 -0.17 -0.176022
0.308 -0.32 -0.331162 -0.17 -0.178236
0.311 -0.32 -0.333027 -0.19 -0.179655
0.314 -0.33 -0.334318 -0.185 -0.180047
0.317 -0.34 -0.334305 -0.18 -0.179305
0.319 -0.335 -0.334013 -0.17 -0.179943
0.322 -0.34 -0.335395 -0.175 -0.180562
0.325 -0.345 -0.337568 -0.19 -0.182672
0.328 -0.355 -0.340379 -0.2 -0.184593
0.331 -0.355 -0.341999 -0.195 -0.184799
0.333 -0.34 -0.34238 -0.185 -0.183848
0.336 -0.33 -0.340695 -0.17 -0.183988
0.339 -0.33 -0.339037 -0.17 -0.184361
0.342 -0.33 -0.337514 -0.185 -0.185556
0.344 -0.34 -0.335533 -0.195 -0.185633
0.347 -0.35 -0.333748 -0.175 -0.184886
0.35 -0.325 -0.331739 -0.2 -0.18449
0.353 -0.325 -0.330902 -0.185 -0.18416
0.356 -0.33 -0.331205 -0.18 -0.185865
0.358 -0.33 -0.333656 -0.185 -0.189572
0.361 -0.335 -0.336986 -0.205 -0.191849
0.364 -0.335 -0.338213 -0.19 -0.194124
0.367 -0.34 -0.338924 -0.18 -0.194544
0.369 -0.33 -0.338388 -0.185 -0.194998
0.372 -0.34 -0.338748 -0.2 -0.197393
0.375 -0.35 -0.339273 -0.215 -0.199987
0.378 -0.355 -0.340773 -0.205 -0.199611
0.381 -0.35 -0.339925 -0.21 -0.200072
0.383 -0.345 -0.338962 -0.2 -0.199364
0.386 -0.33 -0.337712 -0.185 -0.198926
0.389 -0.32 -0.337553 -0.205 -0.200024
0.392 -0.335 -0.337551 -0.2 -0.202331
0.394 -0.33 -0.33769 -0.21 -0.202551
0.397 -0.345 -0.338249 -0.205 -0.201335
0.4 -0.33 -0.33651 -0.185 -0.199889
0.403 -0.335 -0.335673 -0.185 -0.199465
0.406 -0.335 -0.336329 -0.2 -0.201615
0.408 -0.345 -0.338493 -0.215 -0.204063
0.411 -0.345 -0.340598 -0.225 -0.207707
0.414 -0.355 -0.342522 -0.22 -0.210986
0.417 -0.34 -0.342385 -0.2 -0.212571
0.419 -0.34 -0.341131 -0.2 -0.216214
0.422 -0.335 -0.34101 -0.215 -0.219887
0.425 -0.33 -0.341226 -0.225 -0.22501
0.428 -0.35 -0.34246 -0.235 -0.229554
0.431 -0.35 -0.343079 -0.245 -0.232823
0.433 -0.345 -0.342617 -0.24 -0.2355
0.436 -0.335 -0.341538 -0.24 -0.239482
0.439 -0.335 -0.341566 -0.24 -0.244693
0.442 -0.335 -0.342092 -0.245 -0.251929
0.444 -0.35 -0.343691 -0.26 -0.258506
0.447 -0.355 -0.345147 -0.26 -0.262702
0.45 -0.355 -0.346224 -0.265 -0.266612
0.453 -0.345 -0.346437 -0.265 -0.271213
0.456 -0.345 -0.347641 -0.28 -0.276242
0.458 -0.335 -0.350997 -0.285 -0.282028
0.461 -0.35 -0.35473 -0.295 -0.288218
0.464 -0.36 -0.357643 -0.295 -0.292751
0.467 -0.36 -0.358676 -0.3 -0.296701
0.469 -0.36 -0.359611 -0.29 -0.300507
0.472 -0.365 -0.360876 -0.3 -0.304447
0.475 -0.36 -0.362824 -0.315 -0.309026
0.478 -0.37 -0.365299 -0.315 -0.312354
0.481 -0.385 -0.367553 -0.315 -0.315574
0.483 -0.37 -0.368388 -0.315 -0.316971
0.486 -0.36 -0.36847 -0.31 -0.318656
0.489 -0.355 -0.368104 -0.31 -0.319184
0.492 -0.36 -0.369181 -0.325 -0.320173
0.494 -0.375 -0.369854 -0.33 -0.319251
0.497 -0.375 -0.369228 -0.325 -0.31604
0.5 -0.365 -0.366858 -0.315 -0.310422
0.503 -0.365 -0.3639 -0.305 -0.304828
0.506 -0.36 -0.361553 -0.305 -0.299751
0.508 -0.36 -0.359729 -0.29 -0.294707
0.511 -0.365 -0.358097 -0.29 -0.288112
0.514 -0.37 -0.355304 -0.275 -0.279923
0.517 -0.355 -0.350364 -0.27 -0.270098
0.519 -0.33 -0.34433 -0.245 -0.259868
0.522 -0.325 -0.337972 -0.24 -0.251226
0.525 -0.325 -0.332717 -0.25 -0.243359
0.528 -0.335 -0.328269 -0.25 -0.234508
0.531 -0.34 -0.322594 -0.235 -0.224514
0.533 -0.315 -0.316175 -0.22 -0.214444
0.536 -0.3 -0.308099 -0.195 -0.20561
0.539 -0.3 -0.300868 -0.19 -0.197256
0.542 -0.29 -0.294933 -0.19 -0.190072
0.544 -0.295 -0.290794 -0.19 -0.181626
0.547 -0.29 -0.285085 -0.18 -0.175046
0.55 -0.285 -0.278101 -0.16 -0.166447
0.553 -0.275 -0.270507 -0.145 -0.159539
0.556 -0.255 -0.263714 -0.15 -0.155842
0.558 -0.25 -0.259691 -0.16 -0.154188
0.561 -0.25 -0.256729 -0.16 -0.154076
0.564 -0.265 -0.25321 -0.155 -0.15409
0.567 -0.255 -0.250384 -0.145 -0.153194
0.569 -0.245 -0.247808 -0.14 -0.152342
0.572 -0.23 -0.245909 -0.16 -0.15362
0.575 -0.245 -0.245376 -0.15 -0.155789
0.578 -0.245 -0.244787 -0.175 -0.158341
0.581 -0.255 -0.245686 -0.17 -0.158838
0.583 -0.255 -0.247081 -0.16 -0.157823
0.586 -0.24 -0.247494 -0.16 -0.157949
0.589 -0.25 -0.247733 -0.15 -0.158887
0.592 -0.255 -0.248741 -0.155 -0.160342
0.594 -0.245 -0.251652 -0.16 -0.161411
0.597 -0.255 -0.253452 -0.17 -0.160337
0.6 -0.25 -0.254805 -0.155 -0.159197
0.603 -0.25 -0.254696 -0.155 -0.158952
0.606 -0.265 -0.25686 -0.15 -0.159519
0.608 -0.26 -0.259287 -0.165 -0.162699
0.611 -0.26 -0.262906 -0.175 -0.165369
0.614 -0.265 -0.265121 -0.165 -0.165856
0.617 -0.27 -0.266301 -0.165 -0.165652
0.619 -0.265 -0.267777 -0.16 -0.164567
0.622 -0.26 -0.270337 -0.16 -0.164645
0.625 -0.275 -0.271831 -0.18 -0.165494
0.628 -0.28 -0.274181 -0.175 -0.167916
0.631 -0.29 -0.275163 -0.185 -0.16922
0.633 -0.275 -0.274604 -0.165 -0.169464
0.636 -0.27 -0.274817 -0.15 -0.170659
0.639 -0.26 -0.27544 -0.15 -0.173217
0.642 -0.28 -0.276064 -0.17 -0.177228
0.644 -0.28 -0.276082 -0.185 -0.178915
0.647 -0.285 -0.276782 -0.195 -0.180402
0.65 -0.275 -0.27583 -0.19 -0.181419
0.653 -0.275 -0.274747 -0.19 -0.183772
0.656 -0.265 -0.274753 -0.185 -0.18803
0.658 -0.27 -0.276375 -0.19 -0.19265
0.661 -0.285 -0.279003 -0.21 -0.197565
0.664 -0.29 -0.280585 -0.195 -0.201093
0.667 -0.28 -0.282296 -0.19 -0.201613
0.669 -0.275 -0.283663 -0.18 -0.20084
0.672 -0.285 -0.287009 -0.205 -0.201376
0.675 -0.28 -0.290824 -0.215 -0.203558
0.678 -0.3 -0.29464 -0.225 -0.205087
0.681 -0.3 -0.296997 -0.21 -0.205853
0.683 -0.305 -0.298576 -0.205 -0.204724
0.686 -0.295 -0.298022 -0.195 -0.203405
0.689 -0.3 -0.298669 -0.2 -0.203071
0.692 -0.31 -0.299443 -0.195 -0.204001
0.694 -0.31 -0.300093 -0.21 -0.203879
0.697 -0.305 -0.299578 -0.215 -0.20346
0.7 -0.295 -0.298096 -0.205 -0.201746
0.703 -0.285 -0.296326 -0.185 -0.202692
0.706 -0.285 -0.295319 -0.195 -0.204993
0.708 -0.29 -0.296267 -0.195 -0.207581
0.711 -0.295 -0.297708 -0.22 -0.208655
0.714 -0.31 -0.298107 -0.22 -0.209627
0.717 -0.29 -0.297231 -0.21 -0.210525
0.719 -0.295 -0.297066 -0.215 -0.212087
0.722 -0.3 -0.299426 -0.22 -0.212509
0.725 -0.305 -0.303222 -0.22 -0.215328
0.728 -0.31 -0.306401 -0.225 -0.218074
0.731 -0.325 -0.308513 -0.21 -0.220016
0.733 -0.31 -0.309057 -0.2 -0.219037
0.736 -0.3 -0.308821 -0.21 -0.219202
0.739 -0.29 -0.309292 -0.225 -0.218254
0.742 -0.31 -0.310634 -0.23 -0.219657
0.744 -0.325 -0.313233 -0.225 -0.220708
0.747 -0.33 -0.314274 -0.22 -0.220275
0.75 -0.315 -0.314827 -0.23 -0.219539
0.753 -0.3 -0.31475 -0.21 -0.218565
0.756 -0.305 -0.315193 -0.215 -0.218517
0.758 -0.31 -0.315162 -0.215 -0.218962
0.761 -0.32 -0.317037 -0.23 -0.218298
0.764 -0.33 -0.316827 -0.215 -0.215887
0.767 -0.325 -0.315405 -0.22 -0.214011
0.769 -0.315 -0.312148 -0.205 -0.213414
0.772 -0.31 -0.30982 -0.205 -0.214828
0.775 -0.305 -0.309513 -0.21 -0.216358
0.778 -0.305 -0.310158 -0.215 -0.21619
0.781 -0.31 -0.308547 -0.225 -0.216891
0.783 -0.3 -0.305023 -0.215 -0.215884
0.786 -0.305 -0.301203 -0.215 -0.214055
0.789 -0.29 -0.298687 -0.215 -0.213143
0.792 -0.3 -0.297772 -0.225 -0.21456
0.794 -0.3 -0.298259 -0.225 -0.215245
0.797 -0.305 -0.299377 -0.225 -0.215912
0.8 -0.305 -0.300307 -0.205 -0.216077
0.803 -0.29 -0.300122 -0.195 -0.215783
0.806 -0.28 -0.299217 -0.21 -0.216688
0.808 -0.295 -0.298248 -0.21 -0.218714
0.811 -0.305 -0.298447 -0.215 -0.220742
0.814 -0.315 -0.297025 -0.235 -0.22169
0.817 -0.305 -0.294876 -0.23 -0.221188
0.819 -0.295 -0.292658 -0.22 -0.220467
0.822 -0.29 -0.289897 -0.22 -0.220883
0.825 -0.28 -0.286683 -0.23 -0.221227
0.828 -0.27 -0.282705 -0.225 -0.220221
0.831 -0.275 -0.277295 -0.23 -0.217386
0.833 -0.275 -0.269318 -0.215 -0.211469
0.836 -0.27 -0.259021 -0.195 -0.206187
0.839 -0.25 -0.250391 -0.195 -0.202146
0.842 -0.25 -0.242555 -0.19 -0.197395
0.844 -0.255 -0.236569 -0.2 -0.194039
0.847 -0.225 -0.231267 -0.195 -0.190427
0.85 -0.22 -0.226286 -0.18 -0.18627
0.853 -0.205 -0.22212 -0.17 -0.182694
0.856 -0.2 -0.218496 -0.18 -0.181273
0.858 -0.205 -0.215933 -0.175 -0.180276
0.861 -0.215 -0.215943 -0.195 -0.180597
0.864 -0.23 -0.217632 -0.195 -0.179943
0.867 -0.22 -0.220137 -0.17 -0.177945
0.869 -0.225 -0.219461 -0.175 -0.177323
0.872 -0.225 -0.218109 -0.175 -0.176876
0.875 -0.225 -0.220028 -0.18 -0.178191
0.878 -0.23 -0.221294 -0.185 -0.17968
0.881 -0.235 -0.223684 -0.185 -0.181107
0.883 -0.24 -0.225613 -0.175 -0.181734
0.886 -0.235 -0.228864 -0.175 -0.184305
0.889 -0.22 -0.234022 -0.175 -0.187073
0.892 -0.21 -0.241427 -0.19 -0.192113
0.894 -0.205 -0.250363 -0.205 -0.196553
0.897 -0.245 -0.259526 -0.2 -0.198864
0.9 -0.285 -0.268606 -0.205 -0.2005
0.903 -0.285 -0.277059 -0.205 -0.202757
0.906 -0.3 -0.285585 -0.215 -0.205579
0.908 -0.31 -0.294972 -0.215 -0.210755
0.911 -0.33 -0.304581 -0.225 -0.215342
0.914 -0.33 -0.313682 -0.215 -0.21846
0.917 -0.325 -0.322367 -0.21 -0.220646
0.919 -0.315 -0.328191 -0.2 -0.222416
0.922 -0.32 -0.332949 -0.215 -0.224477
0.925 -0.315 -0.333821 -0.225 -0.228035
0.928 -0.325 -0.335003 -0.245 -0.22984
0.931 -0.34 -0.337697 -0.245 -0.230866
0.933 -0.345 -0.337252 -0.25 -0.231623
0.936 -0.34 -0.336523 -0.225 -0.232618
0.939 -0.34 -0.337135 -0.23 -0.234765
0.942 -0.35 -0.339439 -0.235 -0.237126
0.944 -0.345 -0.341697 -0.24 -0.237684
0.947 -0.355 -0.342741 -0.235 -0.236543
0.95 -0.33 -0.341267 -0.235 -0.233186
0.953 -0.335 -0.339135 -0.22 -0.230541
0.956 -0.33 -0.337102 -0.23 -0.228803
0.958 -0.32 -0.334632 -0.24 -0.229349
0.961 -0.345 -0.33163 -0.24 -0.230106
0.964 -0.355 -0.330371 -0.245 -0.232277
0.967 -0.34 -0.329926 -0.225 -0.235953
0.969 -0.33 -0.330884 -0.225 -0.244902
0.972 -0.325 -0.335351 -0.235 -0.260129
0.975 -0.33 -0.345646 -0.25 -0.279869
0.978 -0.35 -0.36475 -0.27 -0.297947
0.981 -0.365 -0.387962 -0.28 -0.309683
0.983 -0.36 -0.414678 -0.29 -0.312988
0.986 -0.38 -0.440214 -0.3 -0.310379
0.989 -0.425 -0.465869 -0.33 -0.302955
0.992 -0.445 -0.487971 -0.36 -0.288146
0.994 -0.475 -0.498604 -0.355 -0.263356
0.997 -0.51 -0.487282 -0.305 -0.22069
1 -0.535 -0.447561 -0.205 -0.157502
1.003 -0.505 -0.375881 -0.08 -0.0736319
1.006 -0.415 -0.271765 0.015 0.0211017
1.008 -0.3 -0.139006 0.065 0.111435
1.011 -0.16 0.0136728 0.115 0.186744
1.014 -0.015 0.171878 0.19 0.239336
1.017 0.235 0.31684 0.3 0.266535
1.019 0.49 0.43753 0.41 0.265412
1.022 0.72 0.527071 0.495 0.237318
1.025 0.875 0.579874 0.485 0.186886
1.028 0.94 0.591085 0.36 0.120521
1.031 0.905 0.560353 0.105 0.0452125
1.033 0.755 0.492172 -0.165 -0.0316296
1.036 0.49 0.395768 -0.35 -0.10862
1.039 0.165 0.276125 -0.45 -0.186384
1.042 -0.11 0.140453 -0.47 -0.260445
1.044 -0.27 -0.00624878 -0.45 -0.325972
1.047 -0.39 -0.147434 -0.395 -0.375683
1.05 -0.45 -0.272059 -0.345 -0.403609
1.053 -0.475 -0.369946 -0.31 -0.407231
1.056 -0.455 -0.438233 -0.295 -0.388333
1.058 -0.425 -0.474699 -0.285 -0.355149
1.061 -0.39 -0.481804 -0.295 -0.321902
1.064 -0.39 -0.467468 -0.295 -0.296185
1.067 -0.385 -0.4415 -0.28 -0.279997
1.069 -0.39 -0.416484 -0.285 -0.27338
1.072 -0.38 -0.398537 -0.285 -0.27346
1.075 -0.38 -0.386301 -0.285 -0.277157
1.078 -0.38 -0.380611 -0.29 -0.28033
1.081 -0.395 -0.379985 -0.275 -0.281407
1.083 -0.385 -0.382231 -0.275 -0.280039
1.086 -0.385 -0.386288 -0.275 -0.278962
1.089 -0.385 -0.39042 -0.27 -0.277957
1.092 -0.375 -0.392934 -0.285 -0.278872
1.094 -0.395 -0.394094 -0.295 -0.280157
1.097 -0.41 -0.394804 -0.29 -0.279546
1.1 -0.41 -0.394938 -0.275 -0.278967
1.103 -0.4 -0.39434 -0.265 -0.278609
1.106 -0.395 -0.393921 -0.265 -0.279047
1.108 -0.39 -0.394702 -0.275 -0.280158
1.111 -0.405 -0.3962 -0.295 -0.279662
1.114 -0.395 -0.396409 -0.29 -0.278862
1.117 -0.385 -0.395748 -0.285 -0.277218
1.119 -0.375 -0.394496 -0.27 -0.275722
1.122 -0.39 -0.393393 -0.265 -0.275386
1.125 -0.39 -0.392808 -0.275 -0.275886
1.128 -0.405 -0.394109 -0.28 -0.276311
1.131 -0.41 -0.395744 -0.28 -0.275389
1.133 -0.41 -0.396981 -0.27 -0.272685
1.136 -0.39 -0.398611 -0.265 -0.270047
1.139 -0.39 -0.40052 -0.27 -0.26943
1.142 -0.395 -0.403406 -0.27 -0.270306
1.144 -0.405 -0.405825 -0.28 -0.271764
1.147 -0.415 -0.407262 -0.27 -0.271726
1.15 -0.4 -0.406067 -0.265 -0.270956
1.153 -0.41 -0.405129 -0.265 -0.269546
1.156 -0.405 -0.405113 -0.265 -0.269637
1.158 -0.41 -0.405567 -0.27 -0.270516
1.161 -0.415 -0.406433 -0.285 -0.270943
1.164 -0.41 -0.407063 -0.285 -0.270374
1.167 -0.4 -0.404335 -0.265 -0.270051
1.169 -0.4 -0.401837 -0.265 -0.270203
1.172 -0.395 -0.40008 -0.255 -0.270798
1.175 -0.39 -0.399063 -0.275 -0.27227
1.178 -0.405 -0.399567 -0.275 -0.273176
1.181 -0.41 -0.397617 -0.28 -0.273047
1.183 -0.39 -0.396061 -0.27 -0.27244
1.186 -0.39 -0.39355 -0.265 -0.272161
1.189 -0.385 -0.392712 -0.275 -0.273679
1.192 -0.385 -0.393406 -0.285 -0.276249
1.194 -0.41 -0.394083 -0.28 -0.278504
1.197 -0.405 -0.394464 -0.28 -0.279264
1.2 -0.395 -0.393588 -0.275 -0.278619
1.203 -0.39 -0.392233 -0.275 -0.277757
1.206 -0.375 -0.391064 -0.275 -0.279407
1.208 -0.39 -0.392471 -0.285 -0.282287
1.211 -0.395 -0.39501 -0.295 -0.284328
1.214 -0.41 -0.395634 -0.295 -0.285497
1.217 -0.4 -0.395757 -0.275 -0.286639
1.219 -0.39 -0.395467 -0.275 -0.287919
1.222 -0.39 -0.395382 -0.285 -0.291116
1.225 -0.385 -0.398202 -0.29 -0.294902
1.228 -0.405 -0.400896 -0.315 -0.297839
1.231 -0.415 -0.4027 -0.315 -0.300789
1.233 -0.415 -0.404807 -0.305 -0.3034
1.236 -0.4 -0.404755 -0.29 -0.30645
1.239 -0.395 -0.406172 -0.31 -0.311821
1.242 -0.405 -0.408089 -0.32 -0.317994
1.244 -0.415 -0.412025 -0.32 -0.324091
1.247 -0.42 -0.414745 -0.335 -0.327846
1.25 -0.42 -0.415592 -0.33 -0.331525
1.253 -0.41 -0.416453 -0.325 -0.335811
1.256 -0.415 -0.417396 -0.345 -0.341229
1.258 -0.425 -0.42068 -0.35 -0.348807
1.261 -0.42 -0.424078 -0.365 -0.356187
1.264 -0.435 -0.427556 -0.37 -0.362113
1.267 -0.43 -0.429818 -0.355 -0.365825
1.269 -0.43 -0.430685 -0.36 -0.369917
1.272 -0.42 -0.433004 -0.37 -0.375552
1.275 -0.43 -0.436317 -0.39 -0.380263
1.278 -0.45 -0.440214 -0.395 -0.385559
1.281 -0.455 -0.443586 -0.4 -0.390464
1.283 -0.45 -0.445029 -0.39 -0.393396
1.286 -0.435 -0.446432 -0.385 -0.397468
1.289 -0.445 -0.44951 -0.39 -0.400791
1.292 -0.45 -0.452344 -0.4 -0.404992
1.294 -0.455 -0.455847 -0.41 -0.408437
1.297 -0.47 -0.458524 -0.42 -0.409201
1.3 -0.46 -0.460451 -0.405 -0.407143
1.303 -0.455 -0.459979 -0.41 -0.405203
1.306 -0.45 -0.460631 -0.41 -0.404457
1.308 -0.455 -0.46185 -0.4 -0.402511
1.311 -0.47 -0.463194 -0.405 -0.398401
1.314 -0.475 -0.462233 -0.39 -0.391481
1.317 -0.46 -0.457999 -0.385 -0.3811
1.319 -0.45 -0.451749 -0.365 -0.368833
1.322 -0.445 -0.445484 -0.355 -0.356829
1.325 -0.44 -0.438318 -0.345 -0.345252
1.328 -0.435 -0.430956 -0.355 -0.334083
1.331 -0.44 -0.420982 -0.33 -0.320464
1.333 -0.41 -0.408854 -0.295 -0.306757
1.336 -0.395 -0.395711 -0.275 -0.293879
1.339 -0.37 -0.383235 -0.27 -0.281254
1.342 -0.365 -0.372597 -0.26 -0.270219
1.344 -0.36 -0.363591 -0.265 -0.258959
1.347 -0.365 -0.354253 -0.265 -0.247972
1.35 -0.34 -0.343924 -0.245 -0.237256
1.353 -0.325 -0.334943 -0.225 -0.227582
1.356 -0.315 -0.327824 -0.21 -0.219691
1.358 -0.32 -0.322914 -0.215 -0.215502
1.361 -0.33 -0.320466 -0.215 -0.210613
1.364 -0.33 -0.318493 -0.205 -0.204532
1.367 -0.32 -0.315396 -0.195 -0.198642
1.369 -0.31 -0.311698 -0.185 -0.193869
1.372 -0.3 -0.310778 -0.185 -0.190396
1.375 -0.3 -0.310124 -0.195 -0.189134
1.378 -0.32 -0.311641 -0.195 -0.189196
1.381 -0.32 -0.312104 -0.195 -0.188513
1.383 -0.315 -0.310569 -0.185 -0.186937
1.386 -0.305 -0.308514 -0.17 -0.185234
1.389 -0.305 -0.308207 -0.185 -0.184742
1.392 -0.295 -0.309228 -0.195 -0.186085
1.394 -0.32 -0.310091 -0.195 -0.186844
1.397 -0.33 -0.311404 -0.195 -0.186911
1.4 -0.305 -0.311411 -0.185 -0.186131
1.403 -0.31 -0.310654 -0.175 -0.185482
1.406 -0.3 -0.309923 -0.175 -0.186113
1.408 -0.3 -0.311378 -0.185 -0.18731
1.411 -0.32 -0.312908 -0.195 -0.188653
1.414 -0.325 -0.31287 -0.195 -0.188995
1.417 -0.31 -0.311749 -0.195 -0.187416
1.419 -0.305 -0.309979 -0.18 -0.186074
1.422 -0.315 -0.30779 -0.185 -0.187406
1.425 -0.305 -0.30832 -0.19 -0.189608
1.428 -0.315 -0.308946 -0.195 -0.191809
1.431 -0.315 -0.308256 -0.195 -0.193141
1.433 -0.31 -0.308066 -0.19 -0.192422
1.436 -0.295 -0.30634 -0.185 -0.191203
1.439 -0.29 -0.305731 -0.185 -0.191577
1.442 -0.305 -0.30636 -0.19 -0.192519
1.444 -0.31 -0.308292 -0.2 -0.192926
1.447 -0.32 -0.308916 -0.215 -0.193684
1.45 -0.315 -0.308915 -0.195 -0.193704
1.453 -0.3 -0.309993 -0.185 -0.192377
1.456 -0.315 -0.31134 -0.185 -0.192854
1.458 -0.315 -0.313867 -0.185 -0.194743
1.461 -0.315 -0.317229 -0.2 -0.19587
1.464 -0.33 -0.320755 -0.205 -0.195549
1.467 -0.315 -0.321752 -0.19 -0.194758
1.469 -0.32 -0.32197 -0.19 -0.195649
1.472 -0.315 -0.323575 -0.2 -0.197066
1.475 -0.325 -0.326157 -0.2 -0.199412
1.478 -0.335 -0.329635 -0.195 -0.203308
1.481 -0.34 -0.332515 -0.22 -0.20433
1.483 -0.335 -0.332836 -0.205 -0.204586
1.486 -0.335 -0.333995 -0.19 -0.204957
1.489 -0.33 -0.335056 -0.2 -0.205871
1.492 -0.325 -0.337318 -0.22 -0.20824
1.494 -0.345 -0.339304 -0.23 -0.210757
1.497 -0.35 -0.339444 -0.21 -0.211231
1.5 -0.345 -0.339135 -0.205 -0.210762
1.503 -0.335 -0.337193 -0.2 -0.211319
1.506 -0.33 -0.337141 -0.195 -0.211548
1.508 -0.33 -0.337764 -0.22 -0.213043
1.511 -0.345 -0.338519 -0.225 -0.214516
1.514 -0.345 -0.338429 -0.225 -0.214756
1.517 -0.345 -0.337107 -0.215 -0.213931
1.519 -0.32 -0.335561 -0.205 -0.212689
1.522 -0.33 -0.334251 -0.205 -0.213655
1.525 -0.335 -0.334993 -0.215 -0.216007
1.528 -0.34 -0.337211 -0.225 -0.216996
1.531 -0.355 -0.339026 -0.22 -0.21645
1.533 -0.335 -0.340265 -0.225 -0.215206
1.536 -0.33 -0.341004 -0.195 -0.214005
1.539 -0.33 -0.341473 -0.215 -0.214956
1.542 -0.335 -0.343815 -0.22 -0.216523
1.544 -0.355 -0.345887 -0.215 -0.218321
1.547 -0.36 -0.34746 -0.225 -0.218799
1.55 -0.355 -0.346201 -0.215 -0.217257
1.553 -0.35 -0.344953 -0.21 -0.215002
1.556 -0.34 -0.343991 -0.21 -0.214593
1.558 -0.345 -0.344 -0.225 -0.21558
1.561 -0.345 -0.345708 -0.23 -0.216396
1.564 -0.345 -0.344814 -0.22 -0.215708
1.567 -0.345 -0.343305 -0.21 -0.213779
1.569 -0.33 -0.340853 -0.205 -0.213387
1.572 -0.33 -0.339009 -0.2 -0.213972
1.575 -0.335 -0.339358 -0.205 -0.21423
1.578 -0.345 -0.340937 -0.22 -0.214662
1.581 -0.35 -0.341652 -0.23 -0.213483
1.583 -0.35 -0.342285 -0.215 -0.21214
1.586 -0.34 -0.342244 -0.205 -0.210598
1.589 -0.33 -0.343099 -0.2 -0.211733
1.592 -0.345 -0.343437 -0.23 -0.213696
1.594 -0.345 -0.344023 -0.22 -0.214953
1.597 -0.355 -0.344173 -0.215 -0.214667
1.6 -0.35 -0.34246 -0.205 -0.21273
1.603 -0.34 -0.340575 -0.2 -0.211531
1.606 -0.33 -0.339201 -0.205 -0.211239
1.608 -0.34 -0.33905 -0.22 -0.211589
1.611 -0.34 -0.340002 -0.22 -0.21243
1.614 -0.34 -0.341654 -0.225 -0.212105
1.617 -0.33 -0.341201 -0.205 -0.210737
1.619 -0.335 -0.339161 -0.2 -0.208573
1.622 -0.33 -0.337669 -0.2 -0.209823
1.625 -0.335 -0.335739 -0.21 -0.210917
1.628 -0.345 -0.334158 -0.23 -0.211855
1.631 -0.345 -0.331309 -0.215 -0.211071
1.633 -0.34 -0.326847 -0.2 -0.209573
1.636 -0.33 -0.321232 -0.2 -0.208078
1.639 -0.315 -0.315549 -0.205 -0.209055
1.642 -0.295 -0.30964 -0.21 -0.210101
1.644 -0.3 -0.303769 -0.215 -0.20981
1.647 -0.295 -0.296615 -0.22 -0.208017
1.65 -0.285 -0.287264 -0.205 -0.204879
1.653 -0.275 -0.277272 -0.2 -0.202416
1.656 -0.265 -0.268378 -0.195 -0.201344
1.658 -0.265 -0.260786 -0.205 -0.202368
1.661 -0.265 -0.255273 -0.205 -0.201492
1.664 -0.255 -0.250286 -0.205 -0.197032
1.667 -0.25 -0.246136 -0.18 -0.191899
1.669 -0.24 -0.241344 -0.17 -0.187359
1.672 -0.225 -0.237329 -0.19 -0.183524
1.675 -0.215 -0.236286 -0.19 -0.181102
1.678 -0.24 -0.237535 -0.2 -0.178563
1.681 -0.245 -0.240644 -0.185 -0.174536
1.683 -0.24 -0.24349 -0.165 -0.17002
1.686 -0.245 -0.244899 -0.145 -0.166229
1.689 -0.235 -0.24449 -0.145 -0.164642
1.692 -0.245 -0.245142 -0.17 -0.164313
1.694 -0.25 -0.245829 -0.175 -0.165868
1.697 -0.275 -0.247198 -0.17 -0.165127
1.7 -0.275 -0.247847 -0.165 -0.163225
1.703 -0.265 -0.247735 -0.15 -0.16474
1.706 -0.25 -0.246721 -0.16 -0.167883
1.708 -0.225 -0.249577 -0.175 -0.173352
1.711 -0.22 -0.253879 -0.19 -0.178241
1.714 -0.23 -0.259054 -0.19 -0.182141
1.717 -0.265 -0.264403 -0.185 -0.184111
1.719 -0.27 -0.269353 -0.185 -0.186205
1.722 -0.28 -0.276834 -0.175 -0.190278
1.725 -0.285 -0.286299 -0.195 -0.195082
1.728 -0.305 -0.297782 -0.215 -0.199616
1.731 -0.32 -0.30981 -0.205 -0.2026
1.733 -0.34 -0.321113 -0.2 -0.203158
1.736 -0.33 -0.330912 -0.195 -0.203702
1.739 -0.335 -0.338004 -0.205 -0.204832
1.742 -0.335 -0.343839 -0.21 -0.208032
1.744 -0.355 -0.348486 -0.22 -0.210348
1.747 -0.37 -0.353651 -0.215 -0.211172
1.75 -0.36 -0.356664 -0.21 -0.211028
1.753 -0.345 -0.358861 -0.205 -0.210065
1.756 -0.35 -0.360521 -0.2 -0.210329
1.758 -0.355 -0.362689 -0.21 -0.212546
1.761 -0.365 -0.366036 -0.22 -0.212991
1.764 -0.375 -0.368772 -0.22 -0.212795
1.767 -0.38 -0.369014 -0.22 -0.211317
1.769 -0.37 -0.368542 -0.2 -0.209828
1.772 -0.365 -0.367921 -0.205 -0.208727
1.775 -0.365 -0.367764 -0.215 -0.209093
1.778 -0.38 -0.368624 -0.225 -0.208944
1.781 -0.385 -0.369758 -0.22 -0.210067
1.783 -0.38 -0.370526 -0.215 -0.216134
1.786 -0.375 -0.372396 -0.205 -0.228562
1.789 -0.355 -0.377188 -0.22 -0.248212
1.792 -0.37 -0.388692 -0.225 -0.271911
1.794 -0.39 -0.409375 -0.24 -0.293074
1.797 -0.405 -0.43687 -0.26 -0.308498
1.8 -0.41 -0.465377 -0.28 -0.313998
1.803 -0.435 -0.493225 -0.3 -0.309915
1.806 -0.465 -0.519541 -0.345 -0.29473
1.808 -0.49 -0.537698 -0.375 -0.26375
1.811 -0.52 -0.536446 -0.345 -0.207377
1.814 -0.555 -0.505804 -0.26 -0.120513
1.817 -0.57 -0.437064 -0.125 -0.0100474
1.819 -0.525 -0.324184 0.025 0.100113
1.822 -0.405 -0.175997 0.145 0.193074
1.825 -0.25 -0.0165642 0.26 0.26443
1.828 -0.09 0.130329 0.375 0.315919
1.831 0.12 0.249418 0.505 0.347349
1.833 0.41 0.335234 0.635 0.357313
1.836 0.69 0.390235 0.705 0.341711
1.839 0.885 0.41527 0.61 0.300928
1.842 0.96 0.410242 0.32 0.238923
1.844 0.85 0.373977 -0.045 0.161919
1.847 0.52 0.305824 -0.25 0.0767064
1.85 0.05 0.210824 -0.27 -0.0107372
1.853 -0.32 0.0969712 -0.24 -0.0964792
1.856 -0.5 -0.0299183 -0.24 -0.177795
1.858 -0.505 -0.162138 -0.25 -0.246831
1.861 -0.445 -0.290395 -0.255 -0.295979
1.864 -0.415 -0.396965 -0.245 -0.317922
1.867 -0.395 -0.470613 -0.245 -0.311744
1.869 -0.39 -0.505013 -0.245 -0.287192
1.872 -0.395 -0.501698 -0.255 -0.262524
1.875 -0.39 -0.470152 -0.26 -0.252377
1.878 -0.395 -0.429462 -0.26 -0.253689
1.881 -0.405 -0.399742 -0.27 -0.256214
1.883 -0.395 -0.388493 -0.245 -0.256471
1.886 -0.405 -0.389255 -0.245 -0.256907
1.889 -0.39 -0.39431 -0.25 -0.258854
1.892 -0.395 -0.398369 -0.265 -0.262074
1.894 -0.395 -0.401306 -0.27 -0.263473
1.897 -0.41 -0.402189 -0.27 -0.263609
1.9 -0.405 -0.402955 -0.265 -0.263161
1.903 -0.4 -0.4034 -0.26 -0.264626
1.906 -0.4 -0.404853 -0.26 -0.267035
1.908 -0.415 -0.407153 -0.27 -0.26975
1.911 -0.405 -0.40997 -0.28 -0.272507
1.914 -0.42 -0.412108 -0.28 -0.272976
1.917 -0.415 -0.413426 -0.27 -0.271388
1.919 -0.405 -0.41347 -0.255 -0.269882
1.922 -0.405 -0.41441 -0.265 -0.270275
1.925 -0.42 -0.415261 -0.28 -0.271103
1.928 -0.42 -0.417141 -0.29 -0.27195
1.931 -0.435 -0.418308 -0.275 -0.271682
1.933 -0.42 -0.417736 -0.265 -0.269756
1.936 -0.41 -0.417256 -0.255 -0.268037
1.939 -0.41 -0.418821 -0.26 -0.266662
1.942 -0.405 -0.419217 -0.26 -0.26697
1.944 -0.425 -0.419657 -0.28 -0.267547
1.947 -0.43 -0.419367 -0.28 -0.26726
1.95 -0.42 -0.418055 -0.265 -0.265209
1.953 -0.415 -0.414742 -0.26 -0.263674
1.956 -0.41 -0.413112 -0.255 -0.264116
1.958 -0.41 -0.412313 -0.26 -0.267543
1.961 -0.425 -0.411883 -0.275 -0.269065
1.964 -0.42 -0.410647 -0.27 -0.269428
1.967 -0.4 -0.407769 -0.275 -0.268583
1.969 -0.395 -0.404585 -0.265 -0.268328
1.972 -0.4 -0.401497 -0.265 -0.269403
1.975 -0.4 -0.401084 -0.27 -0.271777
1.978 -0.395 -0.401808 -0.28 -0.273524
1.981 -0.415 -0.402816 -0.285 -0.27379
1.983 -0.405 -0.40296 -0.28 -0.274202
1.986 -0.39 -0.403388 -0.255 -0.274457
1.989 -0.4 -0.404611 -0.27 -0.275418
1.992 -0.4 -0.407777 -0.28 -0.278712
1.994 -0.415 -0.412017 -0.29 -0.280126
1.997 -0.425 -0.414518 -0.29 -0.281834
2 -0.425 -0.415387 -0.27 -0.282465
2.003 -0.415 -0.415371 -0.27 -0.283333
2.006 -0.415 -0.416299 -0.285 -0.284462
2.008 -0.41 -0.416615 -0.3 -0.287059
2.011 -0.425 -0.418477 -0.3 -0.290467
2.014 -0.425 -0.418748 -0.3 -0.292476
2.017 -0.42 -0.417102 -0.295 -0.292627
2.019 -0.415 -0.414967 -0.275 -0.293719
2.022 -0.4 -0.413338 -0.295 -0.296719
2.025 -0.4 -0.410972 -0.3 -0.301572
2.028 -0.41 -0.409897 -0.31 -0.306249
2.031 -0.425 -0.408764 -0.31 -0.30951
2.033 -0.41 -0.406227 -0.315 -0.312769
2.036 -0.405 -0.402958 -0.31 -0.316929
2.039 -0.395 -0.400418 -0.31 -0.323918
2.042 -0.4 -0.399354 -0.335 -0.331316
2.044 -0.4 -0.398714 -0.345 -0.338055
2.047 -0.405 -0.398266 -0.355 -0.343921
2.05 -0.385 -0.398027 -0.35 -0.347561
2.053 -0.4 -0.397358 -0.345 -0.353352
2.056 -0.39 -0.396754 -0.36 -0.359086
2.058 -0.39 -0.398043 -0.37 -0.366595
2.061 -0.4 -0.401103 -0.375 -0.372416
2.064 -0.415 -0.404053 -0.385 -0.377762
2.067 -0.405 -0.405433 -0.37 -0.381206
2.069 -0.405 -0.407056 -0.37 -0.384284
2.072 -0.41 -0.409088 -0.385 -0.389
2.075 -0.415 -0.412424 -0.4 -0.39399
2.078 -0.42 -0.416097 -0.415 -0.39923
2.081 -0.42 -0.417973 -0.405 -0.403112
2.083 -0.425 -0.42041 -0.41 -0.405021
2.086 -0.415 -0.421322 -0.39 -0.407963
2.089 -0.415 -0.421605 -0.405 -0.411234
2.092 -0.41 -0.422605 -0.41 -0.414055
2.094 -0.435 -0.425284 -0.425 -0.415902
2.097 -0.43 -0.426162 -0.42 -0.414683
2.1 -0.435 -0.42611 -0.41 -0.411319
2.103 -0.42 -0.426015 -0.405 -0.406845
2.106 -0.42 -0.425649 -0.4 -0.401836
2.108 -0.42 -0.425127 -0.4 -0.396527
2.111 -0.42 -0.422908 -0.405 -0.388176
2.114 -0.425 -0.419547 -0.385 -0.378408
2.117 -0.425 -0.413444 -0.365 -0.364513
2.119 -0.415 -0.40587 -0.345 -0.350726
2.122 -0.395 -0.397193 -0.335 -0.337275
2.125 -0.395 -0.389606 -0.325 -0.323929
2.128 -0.39 -0.382022 -0.31 -0.309683
2.131 -0.375 -0.374227 -0.295 -0.294353
2.133 -0.36 -0.364454 -0.275 -0.278888
2.136 -0.34 -0.355067 -0.255 -0.263648
2.139 -0.335 -0.346254 -0.25 -0.2518
2.142 -0.33 -0.338218 -0.24 -0.242488
2.144 -0.335 -0.331353 -0.245 -0.233321
2.147 -0.335 -0.325788 -0.23 -0.225121
2.15 -0.325 -0.320469 -0.205 -0.21718
2.153 -0.32 -0.315397 -0.2 -0.211618
2.156 -0.305 -0.311968 -0.2 -0.208189
2.158 -0.305 -0.309729 -0.205 -0.206476
2.161 -0.315 -0.30914 -0.21 -0.203655
2.164 -0.31 -0.3083 -0.22 -0.201046
2.167 -0.305 -0.306314 -0.195 -0.198364
2.169 -0.3 -0.304554 -0.19 -0.197432
2.172 -0.3 -0.303068 -0.2 -0.196889
2.175 -0.3 -0.303893 -0.2 -0.198995
2.178 -0.31 -0.305758 -0.21 -0.199964
2.181 -0.31 -0.307408 -0.2 -0.199413
2.183 -0.31 -0.308176 -0.19 -0.197499
2.186 -0.315 -0.308063 -0.175 -0.195838
2.189 -0.3 -0.309411 -0.2 -0.195425
2.192 -0.305 -0.31104 -0.205 -0.19612
2.194 -0.315 -0.313243 -0.21 -0.197445
2.197 -0.32 -0.313707 -0.2 -0.197136
2.2 -0.325 -0.312759 -0.2 -0.195038
2.203 -0.31 -0.31167 -0.18 -0.19407
2.206 -0.305 -0.311353 -0.19 -0.193921
2.208 -0.305 -0.311742 -0.19 -0.195026
2.211 -0.32 -0.312246 -0.205 -0.196219
2.214 -0.325 -0.312551 -0.205 -0.195868
2.217 -0.305 -0.312115 -0.195 -0.19389
2.219 -0.31 -0.311445 -0.185 -0.194957
2.222 -0.295 -0.312226 -0.19 -0.196737
2.225 -0.31 -0.314345 -0.19 -0.199385
2.228 -0.325 -0.317455 -0.21 -0.20144
2.231 -0.33 -0.320966 -0.21 -0.203303
2.233 -0.32 -0.323383 -0.205 -0.203991
2.236 -0.32 -0.32433 -0.205 -0.205098
2.239 -0.32 -0.326268 -0.2 -0.207502
2.242 -0.325 -0.329503 -0.215 -0.210688
2.244 -0.35 -0.333269 -0.225 -0.212682
2.247 -0.35 -0.335556 -0.21 -0.213187
2.25 -0.34 -0.338483 -0.21 -0.213485
2.253 -0.335 -0.339261 -0.21 -0.214652
2.256 -0.33 -0.341314 -0.215 -0.216616
2.258 -0.335 -0.344387 -0.225 -0.220538
2.261 -0.34 -0.348119 -0.225 -0.223089
2.264 -0.36 -0.349554 -0.23 -0.224549
2.267 -0.35 -0.35077 -0.21 -0.225704
2.269 -0.35 -0.350379 -0.21 -0.226425
2.272 -0.355 -0.350039 -0.23 -0.228477
2.275 -0.36 -0.352434 -0.25 -0.232787
2.278 -0.355 -0.354532 -0.25 -0.234662
2.281 -0.365 -0.356147 -0.245 -0.234954
2.283 -0.355 -0.355784 -0.23 -0.23492
2.286 -0.35 -0.354403 -0.215 -0.234632
2.289 -0.34 -0.354032 -0.23 -0.235346
2.292 -0.355 -0.354385 -0.24 -0.236563
2.294 -0.35 -0.35574 -0.245 -0.237533
2.297 -0.365 -0.356791 -0.245 -0.23633
2.3 -0.365 -0.357334 -0.24 -0.234984
2.303 -0.35 -0.357383 -0.215 -0.233212
2.306 -0.355 -0.358941 -0.225 -0.234838
2.308 -0.35 -0.360621 -0.24 -0.23713
2.311 -0.37 -0.36396 -0.24 -0.238009
2.314 -0.38 -0.366193 -0.245 -0.237246
2.317 -0.37 -0.367444 -0.24 -0.234635
2.319 -0.36 -0.365971 -0.23 -0.232319
2.322 -0.365 -0.365673 -0.235 -0.233557
2.325 -0.36 -0.365896 -0.24 -0.235673
2.328 -0.365 -0.366482 -0.23 -0.236731
2.331 -0.38 -0.36694 -0.25 -0.238223
2.333 -0.37 -0.364707 -0.225 -0.236762
2.336 -0.365 -0.361852 -0.215 -0.235484
2.339 -0.35 -0.358792 -0.23 -0.235709
2.342 -0.35 -0.357408 -0.24 -0.235747
2.344 -0.35 -0.357081 -0.25 -0.236656
2.347 -0.37 -0.356432 -0.265 -0.236342
2.35 -0.365 -0.354049 -0.23 -0.234575
2.353 -0.345 -0.352138 -0.22 -0.23353
2.356 -0.345 -0.352483 -0.235 -0.233225
2.358 -0.34 -0.352844 -0.225 -0.232074
2.361 -0.355 -0.355042 -0.235 -0.232458
2.364 -0.365 -0.356688 -0.235 -0.231085
2.367 -0.36 -0.358374 -0.225 -0.228171
2.369 -0.355 -0.358481 -0.225 -0.22603
2.372 -0.355 -0.359246 -0.215 -0.225564
2.375 -0.355 -0.360572 -0.225 -0.226125
2.378 -0.375 -0.362367 -0.235 -0.227347
2.381 -0.385 -0.364572 -0.23 -0.225881
2.383 -0.355 -0.364825 -0.225 -0.22438
2.386 -0.36 -0.364245 -0.225 -0.223978
2.389 -0.355 -0.362659 -0.225 -0.224207
2.392 -0.36 -0.362927 -0.225 -0.225734
2.394 -0.36 -0.362833 -0.23 -0.226883
2.397 -0.37 -0.36111 -0.23 -0.227252
2.4 -0.36 -0.357488 -0.215 -0.226858
2.403 -0.345 -0.353124 -0.21 -0.225685
2.406 -0.355 -0.348568 -0.225 -0.226541
2.408 -0.345 -0.344765 -0.24 -0.22786
2.411 -0.345 -0.341899 -0.235 -0.228016
2.414 -0.345 -0.335884 -0.24 -0.227927
2.417 -0.34 -0.329544 -0.225 -0.226232
2.419 -0.31 -0.322689 -0.215 -0.224613
2.422 -0.305 -0.316419 -0.22 -0.223521
2.425 -0.305 -0.310422 -0.22 -0.222448
2.428 -0.31 -0.3056 -0.23 -0.219974
2.431 -0.305 -0.29916 -0.23 -0.216474
2.433 -0.29 -0.291708 -0.205 -0.211672
2.436 -0.285 -0.285139 -0.2 -0.208243
2.439 -0.275 -0.278875 -0.205 -0.207032
2.442 -0.28 -0.274979 -0.195 -0.20685
2.444 -0.28 -0.272077 -0.21 -0.204635
2.447 -0.275 -0.270137 -0.205 -0.201255
2.45 -0.265 -0.267115 -0.19 -0.195724
2.453 -0.255 -0.265065 -0.185 -0.191234
2.456 -0.245 -0.263635 -0.2 -0.187744
2.458 -0.26 -0.264088 -0.195 -0.186536
2.461 -0.265 -0.265915 -0.2 -0.18467
2.464 -0.275 -0.267831 -0.19 -0.180616
2.467 -0.28 -0.270273 -0.17 -0.175639
2.469 -0.265 -0.270294 -0.14 -0.171715
2.472 -0.27 -0.26964 -0.165 -0.168547
2.475 -0.275 -0.268159 -0.165 -0.169397
2.478 -0.28 -0.268009 -0.185 -0.170521
2.481 -0.275 -0.266496 -0.18 -0.170788
2.483 -0.28 -0.265333 -0.17 -0.170615
2.486 -0.275 -0.264072 -0.15 -0.17261
2.489 -0.265 -0.265706 -0.165 -0.17643
2.492 -0.255 -0.270172 -0.18 -0.182692
2.494 -0.24 -0.277823 -0.2 -0.188318
2.497 -0.26 -0.287059 -0.21 -0.192077
2.5 -0.28 -0.29583 -0.21 -0.193292
2.503 -0.31 -0.305655 -0.185 -0.195788
2.506 -0.31 -0.316486 -0.19 -0.198965
2.508 -0.345 -0.329111 -0.2 -0.204106
2.511 -0.36 -0.341554 -0.215 -0.208656
2.514 -0.38 -0.354188 -0.22 -0.210778
2.517 -0.385 -0.365377 -0.21 -0.210554
2.519 -0.38 -0.374452 -0.195 -0.210909
2.522 -0.37 -0.381793 -0.205 -0.211973
2.525 -0.375 -0.387077 -0.22 -0.214673
2.528 -0.385 -0.390252 -0.225 -0.217563
2.531 -0.39 -0.390788 -0.23 -0.220502
2.533 -0.395 -0.390989 -0.22 -0.220642
2.536 -0.385 -0.388233 -0.21 -0.220029
2.539 -0.385 -0.387699 -0.21 -0.221142
2.542 -0.385 -0.387963 -0.23 -0.222627
2.544 -0.395 -0.38997 -0.235 -0.223954
2.547 -0.405 -0.39128 -0.23 -0.223957
2.55 -0.4 -0.39133 -0.225 -0.221388
2.553 -0.375 -0.389201 -0.215 -0.219018
2.556 -0.375 -0.387926 -0.22 -0.218452
2.558 -0.39 -0.387478 -0.22 -0.219647
2.561 -0.395 -0.389784 -0.23 -0.222509
2.564 -0.415 -0.394237 -0.24 -0.225853
2.567 -0.405 -0.399743 -0.22 -0.231749
2.569 -0.4 -0.404356 -0.225 -0.243191
2.572 -0.39 -0.41027 -0.235 -0.262833
2.575 -0.405 -0.422435 -0.25 -0.288104
2.578 -0.425 -0.442149 -0.28 -0.314506
2.581 -0.46 -0.467355 -0.305 -0.337622
2.583 -0.475 -0.494698 -0.325 -0.353965
2.586 -0.505 -0.522045 -0.345 -0.363253
2.589 -0.51 -0.549382 -0.375 -0.36405
2.592 -0.525 -0.574696 -0.415 -0.354447
2.594 -0.54 -0.598253 -0.425 -0.332308
2.597 -0.6 -0.610149 -0.385 -0.290186
2.6 -0.645 -0.599765 -0.295 -0.222303
2.603 -0.63 -0.557439 -0.18 -0.124114
2.606 -0.575 -0.479627 -0.065 -0.00762832
2.608 -0.495 -0.362767 0.035 0.104369
2.611 -0.385 -0.215538 0.13 0.195789
2.614 -0.27 -0.0553612 0.24 0.264032
2.617 -0.115 0.0928555 0.37 0.310889
2.619 0.09 0.213846 0.495 0.334756
2.622 0.37 0.302249 0.61 0.331198
2.625 0.635 0.357813 0.655 0.303091
2.628 0.81 0.380284 0.545 0.256232
2.631 0.86 0.370075 0.23 0.194353
2.633 0.77 0.33078 -0.105 0.122043
2.636 0.475 0.265427 -0.28 0.0425024
2.639 0.065 0.176438 -0.285 -0.0410069
2.642 -0.305 0.0683066 -0.255 -0.122708
2.644 -0.5 -0.0526577 -0.255 -0.197664
2.647 -0.52 -0.178678 -0.26 -0.25787
2.65 -0.475 -0.298898 -0.23 -0.298329
2.653 -0.41 -0.398521 -0.22 -0.31362
2.656 -0.39 -0.467468 -0.245 -0.303531
2.658 -0.39 -0.501193 -0.255 -0.278176
2.661 -0.4 -0.50112 -0.26 -0.255178
2.664 -0.41 -0.472895 -0.25 -0.245214
2.667 -0.405 -0.433908 -0.235 -0.245634
2.669 -0.385 -0.402842 -0.245 -0.248042
2.672 -0.39 -0.389323 -0.245 -0.250338
2.675 -0.395 -0.390306 -0.26 -0.252847
2.678 -0.405 -0.395124 -0.265 -0.256299
2.681 -0.41 -0.399599 -0.265 -0.256451
2.683 -0.405 -0.401325 -0.26 -0.255038
2.686 -0.4 -0.401697 -0.24 -0.25516
2.689 -0.39 -0.401502 -0.245 -0.256522
2.692 -0.395 -0.403148 -0.26 -0.259369
2.694 -0.41 -0.405485 -0.27 -0.261479
2.697 -0.415 -0.406855 -0.27 -0.260505
2.7 -0.41 -0.405953 -0.255 -0.259614
2.703 -0.395 -0.404487 -0.255 -0.259176
2.706 -0.405 -0.403047 -0.25 -0.259872
2.708 -0.41 -0.402239 -0.265 -0.26144
2.711 -0.405 -0.402252 -0.27 -0.262483
2.714 -0.405 -0.401953 -0.27 -0.262491
2.717 -0.41 -0.400644 -0.265 -0.260283
2.719 -0.39 -0.398588 -0.25 -0.25879
2.722 -0.385 -0.397025 -0.245 -0.258416
2.725 -0.39 -0.396842 -0.265 -0.259068
2.728 -0.395 -0.397808 -0.27 -0.259523
2.731 -0.4 -0.398947 -0.26 -0.258926
2.733 -0.4 -0.397839 -0.255 -0.256999
2.736 -0.4 -0.3966 -0.245 -0.255309
2.739 -0.395 -0.396337 -0.25 -0.255252
2.742 -0.395 -0.396213 -0.26 -0.256268
2.744 -0.405 -0.39668 -0.27 -0.257661
2.747 -0.405 -0.396827 -0.26 -0.258173
2.75 -0.4 -0.394995 -0.255 -0.258329
2.753 -0.395 -0.392736 -0.25 -0.258562
2.756 -0.385 -0.391308 -0.255 -0.26084
2.758 -0.375 -0.390554 -0.255 -0.262651
2.761 -0.385 -0.38981 -0.275 -0.263205
2.764 -0.395 -0.38832 -0.27 -0.263496
2.767 -0.39 -0.386474 -0.265 -0.262589
2.769 -0.385 -0.385021 -0.26 -0.262143
2.772 -0.375 -0.383805 -0.26 -0.26256
2.775 -0.385 -0.385142 -0.275 -0.263173
2.778 -0.395 -0.385789 -0.27 -0.263702
2.781 -0.395 -0.385737 -0.26 -0.263509
2.783 -0.385 -0.385206 -0.245 -0.262265
2.786 -0.375 -0.385314 -0.255 -0.261226
2.789 -0.375 -0.384101 -0.265 -0.260744
2.792 -0.385 -0.384006 -0.265 -0.261811
2.794 -0.395 -0.384223 -0.27 -0.262998
2.797 -0.39 -0.383684 -0.265 -0.2634
2.8 -0.39 -0.383678 -0.26 -0.264783
2.803 -0.365 -0.382975 -0.27 -0.267107
2.806 -0.375 -0.382586 -0.265 -0.271144
2.808 -0.385 -0.382886 -0.27 -0.274964
2.811 -0.395 -0.383383 -0.28 -0.277877
2.814 -0.38 -0.38296 -0.285 -0.27939
2.817 -0.385 -0.381182 -0.28 -0.282288
2.819 -0.375 -0.379461 -0.285 -0.287475
2.822 -0.38 -0.380047 -0.29 -0.29312
2.825 -0.39 -0.380815 -0.31 -0.297089
2.828 -0.38 -0.381008 -0.305 -0.30125
2.831 -0.375 -0.380847 -0.3 -0.304456
2.833 -0.375 -0.378714 -0.3 -0.309019
2.836 -0.375 -0.377278 -0.31 -0.314565
2.839 -0.375 -0.377674 -0.325 -0.321121
2.842 -0.38 -0.379482 -0.34 -0.327538
2.844 -0.39 -0.378867 -0.34 -0.333741
2.847 -0.39 -0.379187 -0.325 -0.339296
2.85 -0.365 -0.378267 -0.32 -0.344743
2.853 -0.37 -0.378808 -0.355 -0.350907
2.856 -0.375 -0.380096 -0.36 -0.358658
2.858 -0.385 -0.381278 -0.38 -0.365312
2.861 -0.39 -0.381329 -0.385 -0.370469
2.864 -0.39 -0.380157 -0.375 -0.373884
2.867 -0.375 -0.378524 -0.365 -0.377486
2.869 -0.365 -0.377826 -0.375 -0.381656
2.872 -0.385 -0.377579 -0.385 -0.385596
2.875 -0.38 -0.379228 -0.39 -0.388702
2.878 -0.39 -0.381206 -0.395 -0.388176
2.881 -0.375 -0.380608 -0.385 -0.384282
2.883 -0.375 -0.379438 -0.375 -0.380896
2.886 -0.365 -0.379699 -0.375 -0.376487
2.889 -0.37 -0.38068 -0.375 -0.371911
2.892 -0.385 -0.381921 -0.38 -0.365834
2.894 -0.395 -0.382296 -0.365 -0.357344
2.897 -0.385 -0.379969 -0.345 -0.346631
2.9 -0.385 -0.375225 -0.335 -0.33468
2.903 -0.37 -0.371571 -0.315 -0.322849
2.906 -0.365 -0.36788 -0.31 -0.310932
2.908 -0.37 -0.364367 -0.305 -0.300601
2.911 -0.375 -0.357723 -0.29 -0.287957
2.914 -0.35 -0.350664 -0.27 -0.274176
2.917 -0.335 -0.342656 -0.255 -0.262484
2.919 -0.32 -0.33407 -0.25 -0.25261
2.922 -0.315 -0.326536 -0.245 -0.245217
2.925 -0.32 -0.32057 -0.235 -0.238096
2.928 -0.325 -0.313658 -0.235 -0.231549
2.931 -0.315 -0.307045 -0.225 -0.225834
2.933 -0.295 -0.30031 -0.22 -0.219601
2.936 -0.285 -0.294539 -0.195 -0.21534
2.939 -0.3 -0.290969 -0.215 -0.213191
2.942 -0.295 -0.290142 -0.23 -0.210575
2.944 -0.285 -0.288372 -0.215 -0.206919
2.947 -0.285 -0.286522 -0.205 -0.203272
2.95 -0.28 -0.28382 -0.195 -0.200901
2.953 -0.27 -0.282878 -0.2 -0.200726
2.956 -0.28 -0.283699 -0.195 -0.199802
2.958 -0.29 -0.285945 -0.195 -0.199024
2.961 -0.295 -0.28841 -0.205 -0.197249
2.964 -0.295 -0.28841 -0.195 -0.195445
2.967 -0.29 -0.287406 -0.18 -0.192553
2.969 -0.28 -0.288428 -0.19 -0.191711
2.972 -0.29 -0.290013 -0.205 -0.194552
2.975 -0.295 -0.291089 -0.21 -0.195641
2.978 -0.31 -0.292739 -0.205 -0.197293
2.981 -0.295 -0.292774 -0.18 -0.197442
2.983 -0.285 -0.291577 -0.185 -0.198106
2.986 -0.28 -0.291227 -0.19 -0.19866
2.989 -0.275 -0.291831 -0.205 -0.200296
2.992 -0.295 -0.292532 -0.215 -0.202949
2.994 -0.305 -0.293207 -0.215 -0.204286
2.997 -0.3 -0.293264 -0.215 -0.205031
3 -0.295 -0.293181 -0.19 -0.206327
3.003 -0.295 -0.293589 -0.21 -0.209693
3.006 -0.285 -0.29587 -0.2 -0.21337
3.008 -0.3 -0.299011 -0.215 -0.21635
3.011 -0.305 -0.300747 -0.22 -0.216236
3.014 -0.3 -0.300749 -0.225 -0.215786
3.017 -0.295 -0.300222 -0.215 -0.21574
3.019 -0.3 -0.300261 -0.215 -0.217149
3.022 -0.305 -0.302427 -0.23 -0.219405
3.025 -0.315 -0.30552 -0.225 -0.220659
3.028 -0.31 -0.308759 -0.225 -0.221935
3.031 -0.315 -0.310915 -0.21 -0.220526
3.033 -0.295 -0.312512 -0.21 -0.221071
3.036 -0.3 -0.313699 -0.215 -0.221262
3.039 -0.31 -0.316628 -0.23 -0.223549
3.042 -0.33 -0.31923 -0.235 -0.225163
3.044 -0.34 -0.321177 -0.23 -0.227148
3.047 -0.33 -0.321672 -0.22 -0.228024
3.05 -0.32 -0.321396 -0.215 -0.228457
3.053 -0.32 -0.322005 -0.23 -0.230449
3.056 -0.315 -0.323838 -0.235 -0.233083
3.058 -0.325 -0.325646 -0.25 -0.23474
3.061 -0.335 -0.327363 -0.245 -0.234395
3.064 -0.33 -0.326734 -0.24 -0.232852
3.067 -0.315 -0.325786 -0.22 -0.232327
3.069 -0.32 -0.325709 -0.23 -0.233454
3.072 -0.32 -0.327463 -0.23 -0.235763
3.075 -0.33 -0.330628 -0.235 -0.236662
3.078 -0.345 -0.333307 -0.24 -0.235871
3.081 -0.34 -0.33542 -0.235 -0.233776
3.083 -0.335 -0.336764 -0.22 -0.232517
3.086 -0.33 -0.337009 -0.23 -0.232916
3.089 -0.335 -0.337986 -0.24 -0.235515
3.092 -0.345 -0.340394 -0.255 -0.237473
3.094 -0.35 -0.340799 -0.245 -0.238839
3.097 -0.345 -0.3399 -0.235 -0.238277
3.1 -0.34 -0.338346 -0.22 -0.237913
3.103 -0.335 -0.335822 -0.23 -0.238148
3.106 -0.335 -0.334717 -0.24 -0.238795
3.108 -0.33 -0.336115 -0.25 -0.239312
3.111 -0.335 -0.337372 -0.255 -0.239155
3.114 -0.34 -0.338021 -0.24 -0.237406
3.117 -0.335 -0.338292 -0.225 -0.236734
3.119 -0.32 -0.338851 -0.23 -0.236564
3.122 -0.34 -0.34083 -0.235 -0.237986
3.125 -0.34 -0.343236 -0.24 -0.238331
3.128 -0.35 -0.345091 -0.245 -0.238454
3.131 -0.365 -0.346675 -0.235 -0.236549
3.133 -0.36 -0.345843 -0.23 -0.2349
3.136 -0.345 -0.347004 -0.235 -0.235353
3.139 -0.345 -0.34782 -0.24 -0.237597
3.142 -0.35 -0.349761 -0.245 -0.238733
3.144 -0.35 -0.351615 -0.235 -0.238735
3.147 -0.35 -0.352354 -0.235 -0.236996
3.15 -0.34 -0.351026 -0.23 -0.235363
3.153 -0.34 -0.351172 -0.24 -0.234673
3.156 -0.345 -0.351592 -0.235 -0.235453
3.158 -0.345 -0.351868 -0.245 -0.236553
3.161 -0.38 -0.352581 -0.25 -0.236561
3.164 -0.36 -0.352989 -0.23 -0.235198
3.167 -0.36 -0.351822 -0.21 -0.234482
3.169 -0.345 -0.350945 -0.23 -0.235095
3.172 -0.345 -0.350513 -0.235 -0.237144
3.175 -0.35 -0.351121 -0.245 -0.237882
3.178 -0.355 -0.350258 -0.25 -0.238053
3.181 -0.345 -0.346659 -0.245 -0.23738
3.183 -0.33 -0.341636 -0.23 -0.237182
3.186 -0.33 -0.337324 -0.23 -0.237164
3.189 -0.335 -0.332115 -0.235 -0.238879
3.192 -0.335 -0.329207 -0.25 -0.24093
3.194 -0.34 -0.324452 -0.25 -0.241036
3.197 -0.33 -0.319961 -0.24 -0.238962
3.2 -0.32 -0.314485 -0.225 -0.237844
3.203 -0.29 -0.308937 -0.23 -0.237699
3.206 -0.29 -0.304418 -0.235 -0.237162
3.208 -0.3 -0.30119 -0.24 -0.236134
3.211 -0.305 -0.295837 -0.245 -0.235722
3.214 -0.285 -0.289524 -0.24 -0.232792
3.217 -0.28 -0.282095 -0.225 -0.229567
3.219 -0.275 -0.2756 -0.225 -0.22709
3.222 -0.28 -0.270579 -0.23 -0.226734
3.225 -0.275 -0.267434 -0.23 -0.22661
3.228 -0.27 -0.263307 -0.225 -0.225142
3.231 -0.265 -0.259345 -0.205 -0.221453
3.233 -0.25 -0.254761 -0.21 -0.217135
3.236 -0.23 -0.25116 -0.22 -0.21294
3.239 -0.245 -0.248269 -0.205 -0.209469
3.242 -0.24 -0.24771 -0.22 -0.205502
3.244 -0.255 -0.246241 -0.22 -0.202524
3.247 -0.255 -0.247295 -0.21 -0.198022
3.25 -0.245 -0.248807 -0.19 -0.194657
3.253 -0.235 -0.251417 -0.18 -0.192895
3.256 -0.255 -0.25294 -0.18 -0.193048
3.258 -0.265 -0.254204 -0.185 -0.192991
3.261 -0.26 -0.255239 -0.19 -0.192831
3.264 -0.255 -0.255822 -0.19 -0.192519
3.267 -0.27 -0.25557 -0.185 -0.194104
3.269 -0.265 -0.256988 -0.205 -0.196603
3.272 -0.28 -0.258833 -0.2 -0.201487
3.275 -0.255 -0.264137 -0.22 -0.206595
3.278 -0.25 -0.270183 -0.22 -0.212296
3.281 -0.245 -0.2757 -0.22 -0.216952
3.283 -0.265 -0.28008 -0.21 -0.220752
3.286 -0.28 -0.287192 -0.225 -0.22586
3.289 -0.3 -0.296165 -0.22 -0.230587
3.292 -0.315 -0.305123 -0.24 -0.234243
3.294 -0.325 -0.312636 -0.245 -0.236031
3.297 -0.335 -0.320109 -0.235 -0.236115
3.3 -0.345 -0.327032 -0.23 -0.236692
3.303 -0.33 -0.334601 -0.245 -0.237458
3.306 -0.335 -0.340595 -0.245 -0.239975
3.308 -0.345 -0.345412 -0.25 -0.241303
3.311 -0.36 -0.348053 -0.255 -0.243222
3.314 -0.35 -0.349372 -0.23 -0.243271
3.317 -0.34 -0.350861 -0.225 -0.243542
3.319 -0.335 -0.352725 -0.23 -0.245178
3.322 -0.345 -0.355512 -0.245 -0.247211
3.325 -0.36 -0.35794 -0.255 -0.24913
3.328 -0.365 -0.361218 -0.265 -0.250188
3.331 -0.375 -0.364143 -0.255 -0.250443
3.333 -0.37 -0.365067 -0.245 -0.250624
3.336 -0.365 -0.366855 -0.26 -0.251741
3.339 -0.365 -0.368959 -0.25 -0.253867
3.342 -0.38 -0.372231 -0.26 -0.255731
3.344 -0.375 -0.373782 -0.27 -0.255139
3.347 -0.375 -0.372865 -0.24 -0.252988
3.35 -0.365 -0.370005 -0.245 -0.249784
3.353 -0.37 -0.367014 -0.25 -0.247774
3.356 -0.36 -0.363468 -0.25 -0.246451
3.358 -0.37 -0.361072 -0.25 -0.24688
3.361 -0.38 -0.359304 -0.265 -0.249369
3.364 -0.365 -0.358725 -0.255 -0.256553
3.367 -0.36 -0.358602 -0.245 -0.271826
3.369 -0.35 -0.363632 -0.255 -0.291306
3.372 -0.355 -0.378115 -0.265 -0.310214
3.375 -0.37 -0.399943 -0.28 -0.324912
3.378 -0.385 -0.426178 -0.305 -0.331646
3.381 -0.395 -0.45347 -0.32 -0.333522
3.383 -0.43 -0.48237 -0.35 -0.329575
3.386 -0.445 -0.508068 -0.38 -0.314787
3.389 -0.485 -0.521446 -0.39 -0.28078
3.392 -0.515 -0.51204 -0.345 -0.221657
3.394 -0.565 -0.469246 -0.24 -0.140539
3.397 -0.555 -0.38711 -0.11 -0.0549444
3.4 -0.475 -0.268238 -0.02 0.0168372
3.403 -0.355 -0.131161 0.04 0.0691877
3.406 -0.22 0.00371202 0.11 0.104613
3.408 -0.055 0.120651 0.22 0.124145
3.411 0.185 0.211631 0.35 0.128903
3.414 0.475 0.274461 0.44 0.117125
3.417 0.705 0.310278 0.395 0.0880517
3.419 0.82 0.319248 0.155 0.0416215
3.422 0.78 0.300966 -0.17 -0.016149
3.425 0.535 0.253091 -0.38 -0.0792432
3.428 0.145 0.179307 -0.41 -0.142754
3.431 -0.2 0.0851438 -0.355 -0.20474
3.433 -0.42 -0.0226054 -0.32 -0.264446
3.436 -0.5 -0.140044 -0.305 -0.31831
3.439 -0.48 -0.260279 -0.3 -0.356822
3.442 -0.45 -0.368491 -0.295 -0.371963
3.444 -0.41 -0.448573 -0.295 -0.361038
3.447 -0.4 -0.494009 -0.285 -0.332228
3.45 -0.39 -0.503094 -0.3 -0.303377
3.453 -0.39 -0.483289 -0.31 -0.288562
3.456 -0.4 -0.450804 -0.305 -0.288106
3.458 -0.405 -0.422041 -0.305 -0.291407
3.461 -0.425 -0.40475 -0.295 -0.293138
3.464 -0.425 -0.399307 -0.27 -0.292326
3.467 -0.405 -0.400714 -0.27 -0.292265
3.469 -0.395 -0.403038 -0.285 -0.29204
3.472 -0.405 -0.405528 -0.305 -0.29179
3.475 -0.405 -0.405281 -0.31 -0.291376
3.478 -0.415 -0.404148 -0.3 -0.28965
3.481 -0.405 -0.40126 -0.29 -0.2884
3.483 -0.385 -0.396648 -0.275 -0.288871
3.486 -0.39 -0.394192 -0.285 -0.290209
3.489 -0.395 -0.39296 -0.285 -0.292417
3.492 -0.395 -0.393869 -0.305 -0.29295
3.494 -0.395 -0.395168 -0.29 -0.291201
3.497 -0.395 -0.395307 -0.29 -0.290056
3.5 -0.385 -0.393835 -0.285 -0.288486
3.503 -0.39 -0.394477 -0.285 -0.288362
3.506 -0.39 -0.396299 -0.29 -0.290479
3.508 -0.4 -0.399302 -0.3 -0.291004
3.511 -0.425 -0.402056 -0.295 -0.290873
3.514 -0.41 -0.403037 -0.285 -0.287805
3.517 -0.4 -0.403903 -0.275 -0.285033
3.519 -0.395 -0.405755 -0.29 -0.282153
3.522 -0.4 -0.40654 -0.295 -0.282226
3.525 -0.405 -0.408367 -0.275 -0.280951
3.528 -0.425 -0.409572 -0.285 -0.279789
3.531 -0.415 -0.409653 -0.285 -0.278444
3.533 -0.405 -0.408982 -0.26 -0.277038
3.536 -0.405 -0.40836 -0.27 -0.277123
3.539 -0.405 -0.408718 -0.265 -0.279381
3.542 -0.41 -0.411392 -0.285 -0.281634
3.544 -0.415 -0.412828 -0.29 -0.284815
3.547 -0.405 -0.413009 -0.295 -0.286232
3.55 -0.42 -0.411782 -0.28 -0.287813
3.553 -0.405 -0.41059 -0.29 -0.291312
3.556 -0.41 -0.409171 -0.295 -0.293589
3.558 -0.41 -0.408524 -0.3 -0.295062
3.561 -0.42 -0.407596 -0.31 -0.296631
3.564 -0.415 -0.405237 -0.305 -0.296131
3.567 -0.405 -0.402473 -0.295 -0.296692
3.569 -0.395 -0.401677 -0.3 -0.296845
3.572 -0.395 -0.402022 -0.28 -0.297955
3.575 -0.395 -0.403352 -0.29 -0.298607
3.578 -0.4 -0.403929 -0.305 -0.299129
3.581 -0.395 -0.403866 -0.29 -0.298042
3.583 -0.395 -0.4038 -0.285 -0.296339
3.586 -0.405 -0.404121 -0.305 -0.29644
3.589 -0.405 -0.404843 -0.31 -0.297674
3.592 -0.42 -0.406731 -0.315 -0.299202
3.594 -0.435 -0.408405 -0.305 -0.299519
3.597 -0.415 -0.408748 -0.295 -0.299881
3.6 -0.405 -0.407481 -0.29 -0.301041
3.603 -0.395 -0.406714 -0.295 -0.301376
3.606 -0.39 -0.40677 -0.3 -0.303951
3.608 -0.415 -0.407009 -0.305 -0.307483
3.611 -0.405 -0.405986 -0.325 -0.309698
3.614 -0.405 -0.404135 -0.31 -0.311252
3.617 -0.4 -0.401661 -0.3 -0.314155
3.619 -0.395 -0.399742 -0.31 -0.320072
3.622 -0.395 -0.399667 -0.335 -0.327856
3.625 -0.405 -0.402213 -0.34 -0.335101
3.628 -0.42 -0.404057 -0.35 -0.341531
3.631 -0.415 -0.404434 -0.355 -0.347533
3.633 -0.4 -0.405391 -0.34 -0.353913
3.636 -0.395 -0.406139 -0.35 -0.360482
3.639 -0.4 -0.410309 -0.365 -0.36651
3.642 -0.405 -0.413622 -0.38 -0.374065
3.644 -0.425 -0.416012 -0.4 -0.380101
3.647 -0.425 -0.419908 -0.385 -0.384926
3.65 -0.425 -0.423328 -0.38 -0.388615
3.653 -0.42 -0.427906 -0.39 -0.39423
3.656 -0.425 -0.432873 -0.4 -0.400064
3.658 -0.45 -0.439034 -0.405 -0.405765
3.661 -0.445 -0.4439 -0.405 -0.409091
3.664 -0.45 -0.445961 -0.405 -0.41061
3.667 -0.435 -0.446531 -0.415 -0.410979
3.669 -0.445 -0.446893 -0.415 -0.411965
3.672 -0.47 -0.447457 -0.42 -0.412524
3.675 -0.455 -0.448872 -0.415 -0.412924
3.678 -0.46 -0.449694 -0.425 -0.411227
3.681 -0.44 -0.448231 -0.41 -0.408133
3.683 -0.435 -0.445665 -0.395 -0.404964
3.686 -0.425 -0.443114 -0.385 -0.402097
3.689 -0.43 -0.442663 -0.405 -0.399649
3.692 -0.445 -0.440995 -0.395 -0.3962
3.694 -0.45 -0.438465 -0.395 -0.390724
3.697 -0.445 -0.433266 -0.375 -0.38473
3.7 -0.43 -0.427367 -0.37 -0.378423
3.703 -0.42 -0.423844 -0.375 -0.371883
3.706 -0.41 -0.41939 -0.375 -0.364791
3.708 -0.425 -0.415188 -0.37 -0.35832
3.711 -0.42 -0.408833 -0.36 -0.349792
3.714 -0.405 -0.400531 -0.345 -0.338954
3.717 -0.38 -0.389246 -0.32 -0.326386
3.719 -0.37 -0.378244 -0.305 -0.315887
3.722 -0.365 -0.368089 -0.305 -0.305897
3.725 -0.365 -0.359114 -0.3 -0.295881
3.728 -0.365 -0.350332 -0.285 -0.284449
3.731 -0.345 -0.341281 -0.275 -0.273037
3.733 -0.33 -0.332447 -0.26 -0.263653
3.736 -0.315 -0.324542 -0.245 -0.258088
3.739 -0.305 -0.319899 -0.245 -0.253393
3.742 -0.305 -0.316716 -0.25 -0.249577
3.744 -0.32 -0.314856 -0.255 -0.246424
3.747 -0.31 -0.31152 -0.245 -0.242752
3.75 -0.31 -0.308226 -0.23 -0.240018
3.753 -0.305 -0.306708 -0.235 -0.239921
3.756 -0.31 -0.306242 -0.245 -0.241028
3.758 -0.315 -0.308562 -0.255 -0.24136
3.761 -0.32 -0.310006 -0.255 -0.240399
3.764 -0.315 -0.31066 -0.225 -0.23871
3.767 -0.305 -0.31082 -0.23 -0.236435
3.769 -0.305 -0.31086 -0.235 -0.235389
3.772 -0.295 -0.310328 -0.24 -0.2354
3.775 -0.31 -0.309652 -0.25 -0.236502
3.778 -0.32 -0.30781 -0.245 -0.236567
3.781 -0.31 -0.305302 -0.225 -0.235145
3.783 -0.315 -0.301479 -0.215 -0.234626
3.786 -0.295 -0.299928 -0.22 -0.235969
3.789 -0.3 -0.299312 -0.24 -0.238478
3.792 -0.305 -0.2994 -0.25 -0.240106
3.794 -0.3 -0.298689 -0.255 -0.239408
3.797 -0.285 -0.29735 -0.245 -0.238462
3.8 -0.28 -0.296221 -0.24 -0.238365
3.803 -0.29 -0.295762 -0.235 -0.239874
3.806 -0.295 -0.297444 -0.245 -0.243884
3.808 -0.305 -0.300132 -0.255 -0.247439
3.811 -0.325 -0.301979 -0.25 -0.250673
3.814 -0.305 -0.305546 -0.235 -0.251793
3.817 -0.3 -0.307689 -0.23 -0.253106
3.819 -0.3 -0.311571 -0.25 -0.25456
3.822 -0.315 -0.315928 -0.26 -0.257041
3.825 -0.325 -0.320245 -0.275 -0.259678
3.828 -0.335 -0.32321 -0.28 -0.261706
3.831 -0.325 -0.323544 -0.275 -0.26261
3.833 -0.315 -0.324052 -0.26 -0.263285
3.836 -0.32 -0.323921 -0.27 -0.264627
3.839 -0.335 -0.325072 -0.255 -0.267022
3.842 -0.33 -0.328308 -0.265 -0.268557
3.844 -0.34 -0.329526 -0.255 -0.267582
3.847 -0.325 -0.3306 -0.265 -0.264732
3.85 -0.325 -0.329289 -0.26 -0.262006
3.853 -0.32 -0.328916 -0.265 -0.261249
3.856 -0.315 -0.329045 -0.265 -0.262692
3.858 -0.335 -0.330003 -0.275 -0.264085
3.861 -0.335 -0.330345 -0.27 -0.26591
3.864 -0.345 -0.329431 -0.265 -0.266397
3.867 -0.335 -0.328378 -0.255 -0.267985
3.869 -0.325 -0.329206 -0.255 -0.268325
3.872 -0.33 -0.330296 -0.265 -0.269964
3.875 -0.315 -0.332241 -0.275 -0.269299
3.878 -0.335 -0.3322 -0.29 -0.269111
3.881 -0.33 -0.331355 -0.275 -0.26811
3.883 -0.33 -0.329006 -0.26 -0.267447
3.886 -0.33 -0.327231 -0.27 -0.267104
3.889 -0.33 -0.327393 -0.265 -0.268091
3.892 -0.335 -0.328186 -0.27 -0.268282
3.894 -0.34 -0.330899 -0.265 -0.268269
3.897 -0.33 -0.33252 -0.265 -0.266172
3.9 -0.32 -0.331793 -0.25 -0.263854
3.903 -0.315 -0.333019 -0.265 -0.26133
3.906 -0.325 -0.333599 -0.265 -0.26135
3.908 -0.335 -0.334823 -0.27 -0.263215
3.911 -0.355 -0.334349 -0.27 -0.264101
3.914 -0.345 -0.33381 -0.265 -0.263697
3.917 -0.34 -0.332926 -0.255 -0.264443
3.919 -0.335 -0.332131 -0.26 -0.265172
3.922 -0.32 -0.332141 -0.255 -0.266739
3.925 -0.325 -0.332692 -0.27 -0.266739
3.928 -0.35 -0.332635 -0.27 -0.266804
3.931 -0.33 -0.331067 -0.285 -0.265302
3.933 -0.315 -0.328934 -0.265 -0.26509
3.936 -0.315 -0.327336 -0.26 -0.265436
3.939 -0.33 -0.327404 -0.265 -0.266482
3.942 -0.33 -0.329065 -0.27 -0.266569
3.944 -0.335 -0.330396 -0.265 -0.265078
3.947 -0.335 -0.330451 -0.26 -0.263159
3.95 -0.33 -0.330569 -0.25 -0.261757
3.953 -0.33 -0.330636 -0.265 -0.261209
3.956 -0.33 -0.331533 -0.265 -0.261345
3.958 -0.34 -0.334877 -0.27 -0.261095
3.961 -0.34 -0.337221 -0.265 -0.262017
3.964 -0.34 -0.337772 -0.255 -0.260866
3.967 -0.325 -0.33695 -0.245 -0.260328
3.969 -0.325 -0.337818 -0.255 -0.261456
3.972 -0.325 -0.33729 -0.275 -0.263347
3.975 -0.345 -0.336401 -0.275 -0.265132
3.978 -0.35 -0.333499 -0.275 -0.2665
3.981 -0.34 -0.328552 -0.255 -0.266131
3.983 -0.33 -0.32278 -0.255 -0.266651
3.986 -0.32 -0.316522 -0.26 -0.267378
3.989 -0.31 -0.310876 -0.265 -0.268503
3.992 -0.305 -0.304274 -0.285 -0.268243
3.994 -0.305 -0.297898 -0.28 -0.267084
3.997 -0.275 -0.288594 -0.265 -0.26332
4 -0.27 -0.278849 -0.26 -0.259067
4.003 -0.255 -0.269796 -0.255 -0.256909
4.006 -0.26 -0.261669 -0.25 -0.255098
4.008 -0.265 -0.25536 -0.255 -0.251809
4.011 -0.26 -0.249085 -0.25 -0.247453
4.014 -0.25 -0.243187 -0.24 -0.243058
4.017 -0.235 -0.237945 -0.23 -0.239281
4.019 -0.235 -0.234969 -0.235 -0.236097
4.022 -0.22 -0.2338 -0.225 -0.234604
4.025 -0.235 -0.234062 -0.235 -0.232502
4.028 -0.235 -0.232174 -0.24 -0.229009
4.031 -0.22 -0.230969 -0.225 -0.225717
4.033 -0.23 -0.230154 -0.215 -0.223284
4.036 -0.225 -0.2317 -0.235 -0.221742
4.039 -0.235 -0.235471 -0.23 -0.221316
4.042 -0.245 -0.239235 -0.225 -0.219572
4.044 -0.255 -0.240842 -0.215 -0.217913
4.047 -0.24 -0.239863 -0.205 -0.215608
4.05 -0.23 -0.236721 -0.2 -0.215498
4.053 -0.23 -0.233558 -0.21 -0.216026
4.056 -0.25 -0.231564 -0.225 -0.217998
4.058 -0.255 -0.23109 -0.23 -0.22059
4.061 -0.25 -0.229222 -0.225 -0.222079
4.064 -0.23 -0.228544 -0.215 -0.22184
4.067 -0.205 -0.228964 -0.21 -0.224872
4.069 -0.195 -0.23219 -0.235 -0.229181
4.072 -0.21 -0.237944 -0.24 -0.234186
4.075 -0.23 -0.246412 -0.255 -0.238313
4.078 -0.27 -0.255824 -0.245 -0.240299
4.081 -0.27 -0.266314 -0.235 -0.241162
4.083 -0.285 -0.276342 -0.23 -0.242059
4.086 -0.285 -0.289215 -0.235 -0.244616
4.089 -0.31 -0.303334 -0.245 -0.248003
4.092 -0.33 -0.317239 -0.27 -0.250538
4.094 -0.34 -0.328831 -0.26 -0.250695
4.097 -0.34 -0.336489 -0.25 -0.250067
4.1 -0.345 -0.340281 -0.24 -0.250312
4.103 -0.35 -0.34374 -0.24 -0.251133
4.106 -0.35 -0.345165 -0.255 -0.253941
4.108 -0.34 -0.349341 -0.26 -0.255691
4.111 -0.355 -0.351811 -0.265 -0.254939
4.114 -0.345 -0.35213 -0.255 -0.253516
4.117 -0.34 -0.3499 -0.245 -0.252612
4.119 -0.34 -0.34999 -0.245 -0.252458
4.122 -0.345 -0.351677 -0.26 -0.254145
4.125 -0.355 -0.353063 -0.255 -0.254756
4.128 -0.37 -0.354008 -0.26 -0.253627
4.131 -0.355 -0.35465 -0.255 -0.250912
4.133 -0.37 -0.354183 -0.24 -0.247587
4.136 -0.345 -0.353924 -0.24 -0.245933
4.139 -0.34 -0.353465 -0.26 -0.244781
4.142 -0.36 -0.353311 -0.26 -0.244825
4.144 -0.38 -0.352524 -0.25 -0.244519
4.147 -0.36 -0.352439 -0.24 -0.246039
4.15 -0.345 -0.352743 -0.235 -0.251105
4.153 -0.35 -0.354532 -0.24 -0.263952
4.156 -0.35 -0.361214 -0.255 -0.282159
4.158 -0.355 -0.375042 -0.27 -0.301999
4.161 -0.38 -0.394387 -0.285 -0.316224
4.164 -0.39 -0.419305 -0.29 -0.323101
4.167 -0.395 -0.44457 -0.31 -0.324179
4.169 -0.425 -0.470732 -0.33 -0.321801
4.172 -0.455 -0.498445 -0.365 -0.312545
4.175 -0.475 -0.521443 -0.37 -0.289282
4.178 -0.51 -0.526187 -0.35 -0.244673
4.181 -0.545 -0.502488 -0.26 -0.171572
4.183 -0.54 -0.442957 -0.135 -0.0770186
4.186 -0.495 -0.343805 -0.02 0.0171478
4.189 -0.405 -0.211339 0.035 0.0928996
4.192 -0.295 -0.0650212 0.095 0.146433
4.194 -0.16 0.0757143 0.185 0.180888
4.197 0.04 0.196335 0.315 0.196842
4.2 0.315 0.287432 0.45 0.194511
4.203 0.595 0.346853 0.515 0.17247
4.206 0.8 0.37527 0.45 0.131121
4.208 0.885 0.374348 0.175 0.0756538
4.211 0.795 0.343676 -0.18 0.0122279
4.214 0.52 0.284721 -0.385 -0.0548055
4.217 0.13 0.201067 -0.395 -0.121322
4.219 -0.215 0.0970006 -0.345 -0.187431
4.222 -0.425 -0.0222916 -0.31 -0.249441
4.225 -0.5 -0.149318 -0.29 -0.300933
4.228 -0.49 -0.273297 -0.275 -0.33413
4.231 -0.45 -0.378367 -0.265 -0.342862
4.233 -0.4 -0.453096 -0.235 -0.326365
4.236 -0.39 -0.492256 -0.25 -0.293575
4.239 -0.395 -0.4968 -0.265 -0.262399
4.242 -0.395 -0.473627 -0.255 -0.246507
4.244 -0.4 -0.437806 -0.245 -0.243949
4.247 -0.39 -0.407483 -0.24 -0.24593
4.25 -0.38 -0.389675 -0.24 -0.247542
4.253 -0.385 -0.384572 -0.25 -0.249972
4.256 -0.385 -0.387638 -0.26 -0.252216
4.258 -0.4 -0.392769 -0.265 -0.254449
4.261 -0.41 -0.396945 -0.275 -0.255974
4.264 -0.41 -0.397667 -0.255 -0.254305
4.267 -0.39 -0.398133 -0.24 -0.254287
4.269 -0.39 -0.399271 -0.245 -0.255796
4.272 -0.405 -0.401574 -0.26 -0.256968
4.275 -0.405 -0.404683 -0.26 -0.257041
4.278 -0.415 -0.406546 -0.265 -0.255565
4.281 -0.41 -0.405703 -0.25 -0.253393
4.283 -0.395 -0.40459 -0.25 -0.252372
4.286 -0.395 -0.403839 -0.245 -0.252501
4.289 -0.4 -0.404397 -0.25 -0.254233
4.292 -0.415 -0.40544 -0.265 -0.255261
4.294 -0.415 -0.406458 -0.255 -0.253604
4.297 -0.415 -0.405137 -0.25 -0.250847
4.3 -0.4 -0.403169 -0.245 -0.247967
4.303 -0.39 -0.402293 -0.245 -0.247295
4.306 -0.39 -0.402213 -0.255 -0.247823
4.308 -0.41 -0.403504 -0.26 -0.247489
4.311 -0.415 -0.404057 -0.25 -0.246113
4.314 -0.405 -0.402458 -0.24 -0.244302
4.317 -0.395 -0.400013 -0.215 -0.24125
4.319 -0.395 -0.398987 -0.23 -0.239568
4.322 -0.395 -0.40006 -0.25 -0.240562
4.325 -0.405 -0.401247 -0.25 -0.240538
4.328 -0.41 -0.403293 -0.255 -0.239856
4.331 -0.41 -0.403869 -0.24 -0.238566
4.333 -0.4 -0.403204 -0.22 -0.237416
4.336 -0.39 -0.402645 -0.235 -0.237323
4.339 -0.395 -0.40472 -0.235 -0.238787
4.342 -0.41 -0.408249 -0.24 -0.238985
4.344 -0.425 -0.411041 -0.255 -0.238383
4.347 -0.415 -0.411791 -0.245 -0.236419
4.35 -0.405 -0.411386 -0.225 -0.235276
4.353 -0.41 -0.410678 -0.23 -0.236695
4.356 -0.405 -0.41108 -0.235 -0.237973
4.358 -0.415 -0.412157 -0.24 -0.240325
4.361 -0.425 -0.411675 -0.24 -0.240615
4.364 -0.425 -0.409977 -0.24 -0.239631
4.367 -0.41 -0.407556 -0.23 -0.23973
4.369 -0.395 -0.405605 -0.245 -0.240289
4.372 -0.39 -0.40468 -0.255 -0.242097
4.375 -0.4 -0.405838 -0.25 -0.243493
4.378 -0.41 -0.405665 -0.25 -0.245255
4.381 -0.41 -0.405433 -0.235 -0.244815
4.383 -0.4 -0.405109 -0.24 -0.244111
4.386 -0.39 -0.405655 -0.235 -0.244487
4.389 -0.41 -0.407442 -0.255 -0.246231
4.392 -0.42 -0.40968 -0.255 -0.248202
4.394 -0.42 -0.412605 -0.255 -0.250704
4.397 -0.415 -0.414496 -0.25 -0.251571
4.4 -0.415 -0.414312 -0.235 -0.254832
4.403 -0.405 -0.413851 -0.26 -0.260044
4.406 -0.42 -0.41364 -0.255 -0.264918
4.408 -0.415 -0.413588 -0.27 -0.269215
4.411 -0.425 -0.412625 -0.285 -0.271917
4.414 -0.41 -0.410489 -0.285 -0.27455
4.417 -0.4 -0.406415 -0.28 -0.277148
4.419 -0.405 -0.404008 -0.285 -0.283298
4.422 -0.4 -0.403839 -0.285 -0.289433
4.425 -0.4 -0.404031 -0.305 -0.294516
4.428 -0.41 -0.403604 -0.295 -0.298367
4.431 -0.4 -0.403166 -0.285 -0.300675
4.433 -0.395 -0.401829 -0.29 -0.30433
4.436 -0.395 -0.403007 -0.305 -0.307064
4.439 -0.405 -0.405175 -0.32 -0.311613
4.442 -0.41 -0.409276 -0.335 -0.316752
4.444 -0.425 -0.412931 -0.34 -0.322004
4.447 -0.425 -0.414892 -0.315 -0.326811
4.45 -0.41 -0.418091 -0.315 -0.332045
4.453 -0.41 -0.421214 -0.33 -0.337411
4.456 -0.42 -0.424954 -0.345 -0.344823
4.458 -0.43 -0.429196 -0.35 -0.350466
4.461 -0.445 -0.431837 -0.355 -0.355351
4.464 -0.44 -0.434021 -0.365 -0.358506
4.467 -0.435 -0.434869 -0.355 -0.361399
4.469 -0.43 -0.437125 -0.365 -0.3644
4.472 -0.43 -0.438794 -0.37 -0.368084
4.475 -0.45 -0.441723 -0.375 -0.370794
4.478 -0.445 -0.444591 -0.375 -0.369413
4.481 -0.445 -0.444774 -0.37 -0.364879
4.483 -0.435 -0.443982 -0.355 -0.359112
4.486 -0.435 -0.442962 -0.36 -0.352671
4.489 -0.445 -0.44211 -0.34 -0.344872
4.492 -0.44 -0.440104 -0.34 -0.334838
4.494 -0.45 -0.43586 -0.33 -0.323805
4.497 -0.43 -0.428849 -0.315 -0.309423
4.5 -0.43 -0.419696 -0.29 -0.2954
4.503 -0.415 -0.410124 -0.275 -0.281424
4.506 -0.4 -0.401365 -0.265 -0.268238
4.508 -0.4 -0.391561 -0.26 -0.255193
4.511 -0.385 -0.380333 -0.245 -0.241546
4.514 -0.365 -0.367738 -0.225 -0.228076
4.517 -0.335 -0.353689 -0.205 -0.2157
4.519 -0.33 -0.342141 -0.2 -0.204974
4.522 -0.325 -0.33178 -0.19 -0.196113
4.525 -0.33 -0.323671 -0.2 -0.188122
4.528 -0.33 -0.314438 -0.185 -0.181525
4.531 -0.31 -0.307986 -0.175 -0.17501
4.533 -0.295 -0.302239 -0.16 -0.168535
4.536 -0.285 -0.297805 -0.155 -0.163612
4.539 -0.29 -0.295989 -0.165 -0.161111
4.542 -0.29 -0.295208 -0.16 -0.158455
4.544 -0.31 -0.294403 -0.17 -0.155907
4.547 -0.295 -0.291443 -0.15 -0.152762
4.55 -0.285 -0.289054 -0.145 -0.150598
4.553 -0.28 -0.287473 -0.15 -0.1488
4.556 -0.3 -0.28795 -0.145 -0.149101
4.558 -0.29 -0.289049 -0.145 -0.148635
4.561 -0.295 -0.28916 -0.155 -0.147674
4.564 -0.29 -0.2879 -0.15 -0.145709
4.567 -0.28 -0.284882 -0.135 -0.142511
4.569 -0.275 -0.282734 -0.145 -0.14159
4.572 -0.275 -0.281301 -0.145 -0.141628
4.575 -0.29 -0.281533 -0.15 -0.142672
4.578 -0.29 -0.280235 -0.145 -0.142318
4.581 -0.285 -0.278434 -0.14 -0.1421
4.583 -0.27 -0.276097 -0.13 -0.142702
4.586 -0.27 -0.276687 -0.135 -0.144197
4.589 -0.27 -0.277298 -0.14 -0.145793
4.592 -0.275 -0.279483 -0.145 -0.147396
4.594 -0.29 -0.281363 -0.165 -0.148078
4.597 -0.285 -0.282207 -0.155 -0.147788
4.6 -0.275 -0.282679 -0.145 -0.148885
4.603 -0.275 -0.283133 -0.15 -0.150293
4.606 -0.29 -0.286098 -0.16 -0.153235
4.608 -0.295 -0.289086 -0.16 -0.155628
4.611 -0.305 -0.291785 -0.16 -0.156445
4.614 -0.295 -0.293226 -0.145 -0.156056
4.617 -0.295 -0.293732 -0.14 -0.155232
4.619 -0.285 -0.294474 -0.15 -0.155739
4.622 -0.29 -0.296283 -0.165 -0.156872
4.625 -0.3 -0.29948 -0.17 -0.158941
4.628 -0.305 -0.301979 -0.165 -0.160114
4.631 -0.31 -0.303511 -0.165 -0.159908
4.633 -0.295 -0.303944 -0.15 -0.159858
4.636 -0.3 -0.30565 -0.15 -0.161777
4.639 -0.305 -0.308253 -0.165 -0.164575
4.642 -0.31 -0.310863 -0.17 -0.165814
4.644 -0.325 -0.313153 -0.18 -0.165912
4.647 -0.325 -0.314326 -0.165 -0.164336
4.65 -0.315 -0.31472 -0.155 -0.164034
4.653 -0.31 -0.315757 -0.16 -0.164815
4.656 -0.315 -0.317617 -0.165 -0.167099
4.658 -0.315 -0.319258 -0.175 -0.168553
4.661 -0.325 -0.320835 -0.18 -0.169631
4.664 -0.32 -0.319598 -0.165 -0.168853
4.667 -0.31 -0.318246 -0.15 -0.168142
4.669 -0.32 -0.317568 -0.17 -0.168598
4.672 -0.315 -0.317761 -0.17 -0.169925
4.675 -0.33 -0.318684 -0.185 -0.171876
4.678 -0.33 -0.319951 -0.175 -0.172046
4.681 -0.32 -0.320379 -0.175 -0.170139
4.683 -0.31 -0.320199 -0.16 -0.170252
4.686 -0.31 -0.320791 -0.165 -0.170564
4.689 -0.31 -0.321654 -0.17 -0.171543
4.692 -0.33 -0.323207 -0.18 -0.172416
4.694 -0.335 -0.324719 -0.175 -0.172346
4.697 -0.33 -0.324836 -0.17 -0.16984
4.7 -0.32 -0.325144 -0.16 -0.167277
4.703 -0.325 -0.325328 -0.16 -0.165853
4.706 -0.325 -0.327099 -0.17 -0.167401
4.708 -0.33 -0.329322 -0.19 -0.167759
4.711 -0.335 -0.329157 -0.165 -0.167444
4.714 -0.33 -0.328607 -0.16 -0.165757
4.717 -0.325 -0.326196 -0.155 -0.164407
4.719 -0.325 -0.323926 -0.16 -0.163828
4.722 -0.32 -0.324202 -0.155 -0.165047
4.725 -0.325 -0.32406 -0.165 -0.16524
4.728 -0.33 -0.323161 -0.185 -0.164627
4.731 -0.325 -0.321785 -0.175 -0.163209
4.733 -0.315 -0.320629 -0.15 -0.161666
4.736 -0.305 -0.320113 -0.155 -0.162684
4.739 -0.325 -0.320219 -0.165 -0.165582
4.742 -0.315 -0.321679 -0.17 -0.166945
4.744 -0.335 -0.322908 -0.17 -0.166496
4.747 -0.33 -0.323209 -0.165 -0.165136
4.75 -0.31 -0.323746 -0.15 -0.164294
4.753 -0.32 -0.324333 -0.16 -0.162788
4.756 -0.33 -0.325791 -0.17 -0.162623
4.758 -0.33 -0.327422 -0.175 -0.163477
4.761 -0.335 -0.328545 -0.18 -0.163893
4.764 -0.33 -0.327731 -0.155 -0.1617
4.767 -0.33 -0.325941 -0.15 -0.159614
4.769 -0.32 -0.326017 -0.145 -0.158802
4.772 -0.32 -0.32533 -0.16 -0.158302
4.775 -0.33 -0.326353 -0.165 -0.1579
4.778 -0.33 -0.326713 -0.16 -0.15693
4.781 -0.325 -0.325525 -0.16 -0.154524
4.783 -0.315 -0.322837 -0.145 -0.152841
4.786 -0.315 -0.321654 -0.15 -0.152782
4.789 -0.315 -0.321558 -0.15 -0.154521
4.792 -0.33 -0.322041 -0.16 -0.155454
4.794 -0.33 -0.320832 -0.16 -0.15467
4.797 -0.32 -0.318174 -0.15 -0.153285
4.8 -0.315 -0.313566 -0.15 -0.152107
4.803 -0.305 -0.308758 -0.15 -0.153246
4.806 -0.305 -0.305078 -0.155 -0.154454
4.808 -0.295 -0.300755 -0.16 -0.154975
4.811 -0.315 -0.295492 -0.16 -0.154227
4.814 -0.3 -0.288821 -0.15 -0.151312
4.817 -0.275 -0.281162 -0.13 -0.148177
4.819 -0.255 -0.273104 -0.15 -0.145585
4.822 -0.255 -0.266715 -0.155 -0.144998
4.825 -0.26 -0.259948 -0.16 -0.143782
4.828 -0.265 -0.252761 -0.15 -0.141494
4.831 -0.255 -0.244519 -0.125 -0.138125
4.833 -0.235 -0.236141 -0.12 -0.135113
4.836 -0.23 -0.229036 -0.115 -0.13231
4.839 -0.225 -0.223524 -0.125 -0.12951
4.842 -0.22 -0.222118 -0.135 -0.125422
4.844 -0.22 -0.219923 -0.14 -0.120726
4.847 -0.215 -0.217973 -0.13 -0.113813
4.85 -0.2 -0.215417 -0.105 -0.108607
4.853 -0.205 -0.215129 -0.105 -0.104884
4.856 -0.205 -0.217671 -0.1 -0.102839
4.858 -0.225 -0.22168 -0.105 -0.0999509
4.861 -0.235 -0.224168 -0.09 -0.0956195
4.864 -0.24 -0.223851 -0.08 -0.091865
4.867 -0.23 -0.22337 -0.075 -0.0894933
4.869 -0.215 -0.223653 -0.09 -0.0887676
4.872 -0.24 -0.224395 -0.09 -0.0906064
4.875 -0.24 -0.226688 -0.1 -0.0940814
4.878 -0.25 -0.229416 -0.1 -0.0975498
4.881 -0.235 -0.231956 -0.095 -0.0996911
4.883 -0.21 -0.236355 -0.09 -0.102164
4.886 -0.2 -0.241768 -0.11 -0.105026
4.889 -0.22 -0.248615 -0.125 -0.11043
4.892 -0.255 -0.257239 -0.13 -0.114593
4.894 -0.275 -0.266942 -0.12 -0.116654
4.897 -0.285 -0.276402 -0.12 -0.118576
4.9 -0.3 -0.284639 -0.11 -0.121592
4.903 -0.305 -0.295051 -0.11 -0.124248
4.906 -0.32 -0.305742 -0.12 -0.128401
4.908 -0.33 -0.317692 -0.13 -0.130785
4.911 -0.325 -0.327126 -0.14 -0.131626
4.914 -0.32 -0.332226 -0.145 -0.130655
4.917 -0.33 -0.333421 -0.125 -0.131639
4.919 -0.33 -0.333503 -0.13 -0.134619
4.922 -0.335 -0.334103 -0.15 -0.13838
4.925 -0.34 -0.335333 -0.145 -0.140296
4.928 -0.345 -0.335601 -0.14 -0.141219
4.931 -0.34 -0.335693 -0.14 -0.140789
4.933 -0.335 -0.334966 -0.12 -0.139327
4.936 -0.32 -0.336071 -0.135 -0.13931
4.939 -0.325 -0.337653 -0.145 -0.140208
4.942 -0.335 -0.338669 -0.16 -0.141443
4.944 -0.345 -0.3389 -0.15 -0.143485
4.947 -0.345 -0.339181 -0.135 -0.141455
4.95 -0.345 -0.338797 -0.125 -0.139127
4.953 -0.335 -0.33846 -0.135 -0.138115
4.956 -0.34 -0.338867 -0.145 -0.137669
4.958 -0.345 -0.338586 -0.15 -0.13764
4.961 -0.355 -0.337612 -0.16 -0.137581
4.964 -0.34 -0.337082 -0.145 -0.137754
4.967 -0.34 -0.337769 -0.135 -0.142439
4.969 -0.34 -0.340345 -0.135 -0.155074
4.972 -0.34 -0.346213 -0.125 -0.176726
4.975 -0.345 -0.358092 -0.16 -0.200479
4.978 -0.355 -0.377226 -0.175 -0.220275
4.981 -0.365 -0.402811 -0.195 -0.233352
4.983 -0.37 -0.430083 -0.21 -0.239083
4.986 -0.405 -0.458803 -0.23 -0.237354
4.989 -0.445 -0.485559 -0.27 -0.225121
4.992 -0.48 -0.50753 -0.29 -0.198482
4.994 -0.495 -0.513455 -0.28 -0.14981
4.997 -0.52 -0.494727 -0.195 -0.0713877
5 -0.535 -0.441968 -0.05 0.0359202
5.003 -0.505 -0.353447 0.085 0.156654
5.006 -0.415 -0.227896 0.195 0.265392
5.008 -0.28 -0.0745374 0.305 0.35218
5.011 -0.135 0.0843233 0.42 0.414859
5.014 0.065 0.228529 0.565 0.456608
5.017 0.3 0.34331 0.705 0.474698
5.019 0.58 0.422455 0.8 0.466316
5.022 0.81 0.466522 0.795 0.431862
5.025 0.945 0.478728 0.595 0.374343
5.028 0.92 0.459021 0.235 0.301515
5.031 0.775 0.407479 -0.075 0.219094
5.033 0.445 0.326767 -0.19 0.130464
5.036 0.02 0.222015 -0.185 0.038251
5.039 -0.295 0.0999804 -0.155 -0.0507552
5.042 -0.445 -0.0333197 -0.17 -0.130479
5.044 -0.47 -0.167006 -0.165 -0.192476
5.047 -0.425 -0.288918 -0.155 -0.229382
5.05 -0.38 -0.384353 -0.145 -0.239126
5.053 -0.36 -0.446409 -0.155 -0.223485
5.056 -0.36 -0.472416 -0.19 -0.197703
5.058 -0.37 -0.467238 -0.2 -0.180328
5.061 -0.38 -0.437891 -0.195 -0.177086
5.064 -0.38 -0.401464 -0.175 -0.180801
5.067 -0.375 -0.375937 -0.175 -0.185013
5.069 -0.37 -0.366075 -0.18 -0.187805
5.072 -0.365 -0.36661 -0.185 -0.191749
5.075 -0.37 -0.371327 -0.2 -0.194341
5.078 -0.385 -0.375762 -0.195 -0.194786
5.081 -0.385 -0.377489 -0.2 -0.192672
5.083 -0.375 -0.377236 -0.195 -0.190603
5.086 -0.37 -0.377869 -0.19 -0.192954
5.089 -0.37 -0.379536 -0.195 -0.194722
5.092 -0.385 -0.382886 -0.2 -0.196564
5.094 -0.395 -0.38517 -0.2 -0.196536
5.097 -0.385 -0.387239 -0.19 -0.195165
5.1 -0.385 -0.388578 -0.18 -0.193459
5.103 -0.39 -0.389367 -0.185 -0.192254
5.106 -0.385 -0.390503 -0.195 -0.19298
5.108 -0.395 -0.392806 -0.21 -0.192499
5.111 -0.41 -0.39497 -0.21 -0.192182
5.114 -0.4 -0.395798 -0.175 -0.192045
5.117 -0.395 -0.395222 -0.19 -0.191201
5.119 -0.38 -0.39515 -0.185 -0.191935
5.122 -0.395 -0.395796 -0.185 -0.192679
5.125 -0.395 -0.397331 -0.195 -0.192676
5.128 -0.4 -0.397457 -0.2 -0.191695
5.131 -0.4 -0.396486 -0.195 -0.189565
5.133 -0.395 -0.394778 -0.18 -0.187978
5.136 -0.39 -0.392784 -0.19 -0.187368
5.139 -0.39 -0.392072 -0.195 -0.188951
5.142 -0.395 -0.392167 -0.19 -0.190664
5.144 -0.405 -0.391458 -0.195 -0.188362
5.147 -0.39 -0.389871 -0.175 -0.186553
5.15 -0.385 -0.38629 -0.175 -0.184815
5.153 -0.375 -0.384631 -0.185 -0.184498
5.156 -0.375 -0.381665 -0.19 -0.184995
5.158 -0.38 -0.380505 -0.195 -0.184694
5.161 -0.39 -0.379877 -0.19 -0.185804
5.164 -0.385 -0.378419 -0.185 -0.184673
5.167 -0.37 -0.376352 -0.17 -0.184363
5.169 -0.37 -0.374856 -0.17 -0.184765
5.172 -0.37 -0.374663 -0.19 -0.185724
5.175 -0.375 -0.376536 -0.2 -0.186543
5.178 -0.385 -0.377759 -0.2 -0.184938
5.181 -0.37 -0.378208 -0.18 -0.183996
5.183 -0.39 -0.377605 -0.175 -0.184351
5.186 -0.375 -0.377625 -0.195 -0.184835
5.189 -0.37 -0.378498 -0.175 -0.187295
5.192 -0.38 -0.380938 -0.19 -0.189088
5.194 -0.39 -0.382803 -0.19 -0.190337
5.197 -0.39 -0.383207 -0.19 -0.189933
5.2 -0.385 -0.38311 -0.18 -0.190711
5.203 -0.375 -0.383459 -0.19 -0.192416
5.206 -0.375 -0.383767 -0.21 -0.196737
5.208 -0.385 -0.385203 -0.205 -0.200737
5.211 -0.395 -0.384998 -0.2 -0.202345
5.214 -0.39 -0.386077 -0.21 -0.203295
5.217 -0.385 -0.384201 -0.195 -0.206344
5.219 -0.375 -0.38336 -0.205 -0.208684
5.222 -0.38 -0.382499 -0.215 -0.211845
5.225 -0.385 -0.382288 -0.23 -0.215819
5.228 -0.39 -0.380977 -0.215 -0.218158
5.231 -0.38 -0.379238 -0.225 -0.219707
5.233 -0.38 -0.375798 -0.205 -0.221822
5.236 -0.37 -0.373496 -0.215 -0.226218
5.239 -0.37 -0.373123 -0.235 -0.230693
5.242 -0.365 -0.373702 -0.245 -0.234601
5.244 -0.39 -0.374567 -0.245 -0.238508
5.247 -0.365 -0.374322 -0.24 -0.24077
5.25 -0.365 -0.373418 -0.245 -0.244418
5.253 -0.36 -0.373267 -0.235 -0.24905
5.256 -0.375 -0.374009 -0.26 -0.255199
5.258 -0.38 -0.375799 -0.265 -0.259902
5.261 -0.4 -0.378293 -0.27 -0.265227
5.264 -0.39 -0.380155 -0.265 -0.268426
5.267 -0.375 -0.380809 -0.265 -0.271765
5.269 -0.375 -0.382473 -0.27 -0.276862
5.272 -0.37 -0.383869 -0.285 -0.283329
5.275 -0.385 -0.386334 -0.3 -0.288936
5.278 -0.39 -0.386714 -0.295 -0.293887
5.281 -0.39 -0.385538 -0.295 -0.298372
5.283 -0.39 -0.382785 -0.295 -0.302238
5.286 -0.39 -0.382973 -0.305 -0.308377
5.289 -0.375 -0.383287 -0.31 -0.313071
5.292 -0.385 -0.385392 -0.32 -0.316443
5.294 -0.395 -0.385659 -0.325 -0.318568
5.297 -0.38 -0.384135 -0.32 -0.318372
5.3 -0.37 -0.38281 -0.31 -0.317144
5.303 -0.375 -0.381322 -0.32 -0.316069
5.306 -0.375 -0.380963 -0.32 -0.314998
5.308 -0.39 -0.381361 -0.325 -0.310994
5.311 -0.405 -0.381033 -0.31 -0.30449
5.314 -0.375 -0.380963 -0.28 -0.295938
5.317 -0.37 -0.379993 -0.28 -0.286273
5.319 -0.36 -0.377806 -0.28 -0.276044
5.322 -0.375 -0.375265 -0.265 -0.265431
5.325 -0.385 -0.373344 -0.265 -0.254696
5.328 -0.38 -0.369665 -0.25 -0.24143
5.331 -0.37 -0.363571 -0.225 -0.226272
5.333 -0.36 -0.355793 -0.2 -0.21228
5.336 -0.345 -0.348052 -0.195 -0.199487
5.339 -0.345 -0.341218 -0.19 -0.187971
5.342 -0.33 -0.334737 -0.18 -0.176386
5.344 -0.33 -0.326375 -0.17 -0.163548
5.347 -0.315 -0.317667 -0.15 -0.150886
5.35 -0.31 -0.307728 -0.135 -0.140011
5.353 -0.295 -0.299599 -0.115 -0.131384
5.356 -0.285 -0.294183 -0.125 -0.125293
5.358 -0.285 -0.290188 -0.13 -0.120191
5.361 -0.295 -0.286605 -0.12 -0.115029
5.364 -0.28 -0.283557 -0.105 -0.109931
5.367 -0.27 -0.280665 -0.1 -0.107115
5.369 -0.28 -0.2794 -0.1 -0.106064
5.372 -0.28 -0.279147 -0.1 -0.106541
5.375 -0.28 -0.280005 -0.115 -0.1073
5.378 -0.29 -0.280505 -0.12 -0.107215
5.381 -0.29 -0.281304 -0.105 -0.106525
5.383 -0.28 -0.281286 -0.1 -0.105216
5.386 -0.275 -0.281553 -0.105 -0.10557
5.389 -0.28 -0.282738 -0.115 -0.107622
5.392 -0.285 -0.285121 -0.12 -0.109367
5.394 -0.29 -0.286108 -0.11 -0.110621
5.397 -0.29 -0.286071 -0.105 -0.110342
5.4 -0.28 -0.285861 -0.095 -0.108856
5.403 -0.28 -0.286334 -0.1 -0.107731
5.406 -0.285 -0.286849 -0.11 -0.10838
5.408 -0.29 -0.288137 -0.12 -0.109266
5.411 -0.3 -0.288957 -0.12 -0.108401
5.414 -0.295 -0.288333 -0.115 -0.108021
5.417 -0.285 -0.286123 -0.105 -0.107064
5.419 -0.28 -0.285028 -0.105 -0.108266
5.422 -0.285 -0.285804 -0.095 -0.111281
5.425 -0.285 -0.287658 -0.105 -0.112927
5.428 -0.295 -0.289021 -0.12 -0.113236
5.431 -0.285 -0.288777 -0.115 -0.112192
5.433 -0.28 -0.287395 -0.105 -0.11119
5.436 -0.275 -0.286209 -0.11 -0.111363
5.439 -0.28 -0.286232 -0.125 -0.112448
5.442 -0.29 -0.287077 -0.115 -0.112942
5.444 -0.31 -0.287398 -0.13 -0.113887
5.447 -0.305 -0.286669 -0.115 -0.113807
5.45 -0.285 -0.284225 -0.095 -0.112998
5.453 -0.27 -0.282989 -0.1 -0.111567
5.456 -0.27 -0.282512 -0.11 -0.110075
5.458 -0.275 -0.282581 -0.115 -0.109348
5.461 -0.285 -0.281028 -0.115 -0.107339
5.464 -0.285 -0.277287 -0.105 -0.104516
5.467 -0.27 -0.272636 -0.1 -0.102587
5.469 -0.265 -0.268169 -0.11 -0.102455
5.472 -0.265 -0.265848 -0.1 -0.101992
5.475 -0.265 -0.264178 -0.1 -0.102586
5.478 -0.28 -0.260937 -0.105 -0.102994
5.481 -0.265 -0.256492 -0.095 -0.101134
5.483 -0.245 -0.253008 -0.095 -0.100807
5.486 -0.235 -0.250593 -0.095 -0.101093
5.489 -0.235 -0.247378 -0.11 -0.103264
5.492 -0.25 -0.24409 -0.115 -0.105825
5.494 -0.25 -0.240724 -0.11 -0.107159
5.497 -0.245 -0.236451 -0.105 -0.108751
5.5 -0.215 -0.232659 -0.105 -0.111496
5.503 -0.22 -0.229429 -0.115 -0.114653
5.506 -0.245 -0.226999 -0.115 -0.118292
5.508 -0.255 -0.226103 -0.135 -0.122805
5.511 -0.23 -0.225549 -0.125 -0.127512
5.514 -0.205 -0.223982 -0.135 -0.131997
5.517 -0.21 -0.223815 -0.125 -0.136729
5.519 -0.22 -0.225781 -0.13 -0.142645
5.522 -0.23 -0.231515 -0.15 -0.149005
5.525 -0.24 -0.237962 -0.155 -0.15448
5.528 -0.24 -0.245654 -0.165 -0.158177
5.531 -0.245 -0.252476 -0.165 -0.160507
5.533 -0.25 -0.259745 -0.17 -0.163586
5.536 -0.27 -0.270052 -0.175 -0.166613
5.539 -0.285 -0.283241 -0.17 -0.169908
5.542 -0.315 -0.296262 -0.175 -0.171107
5.544 -0.32 -0.306682 -0.17 -0.172006
5.547 -0.32 -0.315193 -0.165 -0.170224
5.55 -0.31 -0.323124 -0.16 -0.168241
5.553 -0.33 -0.331739 -0.16 -0.167839
5.556 -0.34 -0.340286 -0.17 -0.167261
5.558 -0.345 -0.347609 -0.18 -0.166134
5.561 -0.36 -0.353298 -0.17 -0.1651
5.564 -0.365 -0.356855 -0.155 -0.16363
5.567 -0.36 -0.359304 -0.155 -0.163096
5.569 -0.35 -0.36254 -0.16 -0.162923
5.572 -0.355 -0.366942 -0.16 -0.163004
5.575 -0.375 -0.369987 -0.175 -0.162972
5.578 -0.385 -0.371732 -0.17 -0.161724
5.581 -0.375 -0.371442 -0.155 -0.159467
5.583 -0.37 -0.370057 -0.15 -0.157924
5.586 -0.365 -0.369441 -0.16 -0.15823
5.589 -0.365 -0.368099 -0.155 -0.159317
5.592 -0.37 -0.367648 -0.165 -0.158598
5.594 -0.38 -0.366025 -0.16 -0.156154
5.597 -0.36 -0.364165 -0.15 -0.153447
5.6 -0.35 -0.359629 -0.15 -0.151363
5.603 -0.355 -0.35616 -0.145 -0.148784
5.606 -0.355 -0.35379 -0.155 -0.147529
5.608 -0.35 -0.351808 -0.165 -0.145096
5.611 -0.365 -0.349281 -0.155 -0.143423
5.614 -0.35 -0.346329 -0.135 -0.141422
5.617 -0.35 -0.343982 -0.13 -0.142744
5.619 -0.34 -0.346072 -0.145 -0.148795
5.622 -0.355 -0.350868 -0.155 -0.164364
5.625 -0.35 -0.359992 -0.16 -0.184755
5.628 -0.375 -0.373941 -0.16 -0.208222
5.631 -0.365 -0.394946 -0.175 -0.229356
5.633 -0.375 -0.422962 -0.19 -0.243424
5.636 -0.4 -0.454464 -0.235 -0.251257
5.639 -0.43 -0.48404 -0.25 -0.25044
5.642 -0.475 -0.5128 -0.295 -0.238032
5.644 -0.52 -0.533365 -0.315 -0.209943
5.647 -0.52 -0.539408 -0.295 -0.162687
5.65 -0.55 -0.519421 -0.19 -0.0912733
5.653 -0.57 -0.470943 -0.085 0.00372997
5.656 -0.54 -0.386172 0.06 0.110289
5.658 -0.445 -0.265095 0.175 0.210969
5.661 -0.305 -0.114413 0.265 0.291406
5.664 -0.14 0.0422834 0.38 0.350686
5.667 0.025 0.183303 0.485 0.387533
5.669 0.26 0.293957 0.59 0.402805
5.672 0.51 0.36982 0.665 0.392785
5.675 0.735 0.411878 0.665 0.3595
5.678 0.845 0.425222 0.5 0.306154
5.681 0.875 0.40866 0.205 0.239588
5.683 0.735 0.360557 -0.075 0.163153
5.686 0.4 0.281713 -0.215 0.08305
5.689 -0.025 0.180861 -0.205 0.00360574
5.692 -0.335 0.063403 -0.18 -0.0724093
5.694 -0.48 -0.0614596 -0.175 -0.137439
5.697 -0.47 -0.187605 -0.165 -0.187713
5.7 -0.415 -0.302025 -0.145 -0.218202
5.703 -0.375 -0.394866 -0.145 -0.22591
5.706 -0.365 -0.456066 -0.16 -0.210997
5.708 -0.385 -0.48345 -0.165 -0.185389
5.711 -0.4 -0.476893 -0.17 -0.164493
5.714 -0.38 -0.446023 -0.155 -0.155485
5.717 -0.39 -0.41017 -0.155 -0.156634
5.719 -0.375 -0.386509 -0.155 -0.159171
5.722 -0.385 -0.37874 -0.17 -0.161621
5.725 -0.395 -0.382512 -0.175 -0.164094
5.728 -0.405 -0.38821 -0.17 -0.165458
5.731 -0.39 -0.391412 -0.155 -0.164792
5.733 -0.38 -0.391821 -0.155 -0.164005
5.736 -0.385 -0.391698 -0.16 -0.164892
5.739 -0.385 -0.392703 -0.165 -0.166412
5.742 -0.395 -0.394341 -0.18 -0.168285
5.744 -0.4 -0.394732 -0.175 -0.168336
5.747 -0.405 -0.394031 -0.17 -0.16796
5.75 -0.4 -0.391956 -0.16 -0.167247
5.753 -0.39 -0.391844 -0.16 -0.168743
5.756 -0.39 -0.392337 -0.17 -0.171265
5.758 -0.395 -0.395301 -0.18 -0.17295
5.761 -0.4 -0.397066 -0.18 -0.172633
5.764 -0.39 -0.397569 -0.17 -0.171989
5.767 -0.385 -0.397229 -0.165 -0.171404
5.769 -0.39 -0.39662 -0.165 -0.170721
5.772 -0.385 -0.397153 -0.175 -0.171974
5.775 -0.41 -0.398673 -0.18 -0.173565
5.778 -0.42 -0.3998 -0.185 -0.173908
5.781 -0.405 -0.3995 -0.17 -0.172725
5.783 -0.41 -0.398238 -0.16 -0.171131
5.786 -0.39 -0.397551 -0.165 -0.171237
5.789 -0.39 -0.39643 -0.175 -0.172592
5.792 -0.39 -0.396491 -0.175 -0.172682
5.794 -0.4 -0.395402 -0.175 -0.172409
5.797 -0.4 -0.392868 -0.18 -0.171569
5.8 -0.39 -0.390613 -0.17 -0.170827
5.803 -0.375 -0.388833 -0.16 -0.172138
5.806 -0.38 -0.390214 -0.17 -0.174181
5.808 -0.395 -0.392538 -0.18 -0.175469
5.811 -0.4 -0.394287 -0.185 -0.175492
5.814 -0.39 -0.395263 -0.17 -0.173503
5.817 -0.4 -0.395219 -0.16 -0.172202
5.819 -0.39 -0.39552 -0.18 -0.172393
5.822 -0.395 -0.395977 -0.18 -0.173856
5.825 -0.41 -0.397602 -0.185 -0.175237
5.828 -0.415 -0.399277 -0.185 -0.176149
5.831 -0.405 -0.398614 -0.165 -0.176731
5.833 -0.385 -0.396605 -0.155 -0.176574
5.836 -0.385 -0.395034 -0.17 -0.177321
5.839 -0.38 -0.394336 -0.175 -0.178535
5.842 -0.4 -0.394001 -0.195 -0.17913
5.844 -0.4 -0.391919 -0.195 -0.179351
5.847 -0.395 -0.390189 -0.19 -0.179701
5.85 -0.39 -0.387277 -0.175 -0.181353
5.853 -0.38 -0.38506 -0.175 -0.184505
5.856 -0.375 -0.385436 -0.19 -0.189428
5.858 -0.395 -0.387025 -0.19 -0.192764
5.861 -0.395 -0.38747 -0.19 -0.195548
5.864 -0.385 -0.38719 -0.185 -0.196229
5.867 -0.38 -0.386278 -0.19 -0.198511
5.869 -0.375 -0.385415 -0.215 -0.201046
5.872 -0.385 -0.386744 -0.22 -0.206979
5.875 -0.39 -0.388573 -0.215 -0.211458
5.878 -0.4 -0.389786 -0.225 -0.215284
5.881 -0.4 -0.390136 -0.215 -0.217391
5.883 -0.385 -0.389327 -0.2 -0.220078
5.886 -0.38 -0.388566 -0.23 -0.224076
5.889 -0.395 -0.389966 -0.225 -0.229526
5.892 -0.39 -0.392079 -0.245 -0.233973
5.894 -0.4 -0.393151 -0.24 -0.237452
5.897 -0.395 -0.393027 -0.245 -0.240675
5.9 -0.385 -0.390851 -0.22 -0.246146
5.903 -0.38 -0.390072 -0.245 -0.252064
5.906 -0.385 -0.389366 -0.26 -0.258851
5.908 -0.395 -0.390333 -0.28 -0.266211
5.911 -0.405 -0.390987 -0.28 -0.271739
5.914 -0.4 -0.390597 -0.285 -0.276348
5.917 -0.39 -0.388817 -0.27 -0.282445
5.919 -0.38 -0.389217 -0.285 -0.288864
5.922 -0.38 -0.390814 -0.295 -0.296321
5.925 -0.385 -0.393666 -0.305 -0.302303
5.928 -0.405 -0.396033 -0.305 -0.308027
5.931 -0.395 -0.39771 -0.315 -0.309735
5.933 -0.4 -0.398181 -0.305 -0.312494
5.936 -0.39 -0.399802 -0.31 -0.315549
5.939 -0.4 -0.402354 -0.33 -0.319253
5.942 -0.405 -0.405852 -0.325 -0.32143
5.944 -0.425 -0.408186 -0.33 -0.322393
5.947 -0.42 -0.408674 -0.315 -0.320123
5.95 -0.405 -0.407301 -0.31 -0.317386
5.953 -0.4 -0.406285 -0.315 -0.314003
5.956 -0.405 -0.405807 -0.31 -0.310695
5.958 -0.405 -0.405639 -0.32 -0.305919
5.961 -0.415 -0.403874 -0.305 -0.299969
5.964 -0.4 -0.400765 -0.29 -0.291711
5.967 -0.39 -0.397372 -0.275 -0.28273
5.969 -0.38 -0.394706 -0.27 -0.274704
5.972 -0.385 -0.392012 -0.265 -0.267141
5.975 -0.395 -0.390389 -0.265 -0.259704
5.978 -0.405 -0.388374 -0.255 -0.25024
5.981 -0.39 -0.384439 -0.245 -0.240448
5.983 -0.37 -0.378799 -0.225 -0.232568
5.986 -0.37 -0.3748 -0.215 -0.225378
5.989 -0.37 -0.371149 -0.215 -0.220051
5.992 -0.385 -0.368944 -0.215 -0.21363
5.994 -0.37 -0.365543 -0.21 -0.205458
5.997 -0.355 -0.36074 -0.205 -0.197511
6 -0.345 -0.353634 -0.185 -0.190101
6.003 -0.34 -0.347061 -0.18 -0.183977
6.006 -0.335 -0.341703 -0.19 -0.17917
6.008 -0.34 -0.338009 -0.19 -0.174998
6.011 -0.355 -0.333942 -0.17 -0.170485
6.014 -0.335 -0.327417 -0.155 -0.165598
6.017 -0.325 -0.322218 -0.14 -0.15968
6.019 -0.31 -0.316922 -0.145 -0.156079
6.022 -0.305 -0.315887 -0.165 -0.154197
6.025 -0.305 -0.315873 -0.16 -0.15375
6.028 -0.32 -0.315641 -0.16 -0.152913
6.031 -0.315 -0.315817 -0.15 -0.150718
6.033 -0.31 -0.315459 -0.145 -0.149127
6.036 -0.305 -0.314944 -0.14 -0.148707
6.039 -0.305 -0.315644 -0.15 -0.150319
6.042 -0.33 -0.317581 -0.15 -0.150704
6.044 -0.325 -0.318727 -0.17 -0.14934
6.047 -0.345 -0.318836 -0.155 -0.147342
6.05 -0.325 -0.31777 -0.145 -0.14468
6.053 -0.315 -0.316056 -0.13 -0.145283
6.056 -0.315 -0.314917 -0.14 -0.145843
6.058 -0.305 -0.31533 -0.15 -0.146131
6.061 -0.31 -0.314595 -0.145 -0.145883
6.064 -0.31 -0.312882 -0.15 -0.145624
6.067 -0.3 -0.310873 -0.135 -0.144297
6.069 -0.305 -0.308503 -0.14 -0.14544
6.072 -0.305 -0.309235 -0.155 -0.146672
6.075 -0.315 -0.309917 -0.15 -0.150062
6.078 -0.32 -0.312944 -0.165 -0.152194
6.081 -0.325 -0.313939 -0.145 -0.153609
6.083 -0.315 -0.314348 -0.145 -0.1539
6.086 -0.305 -0.315829 -0.155 -0.154134
6.089 -0.315 -0.317242 -0.16 -0.156
6.092 -0.325 -0.318228 -0.16 -0.157538
6.094 -0.325 -0.319186 -0.175 -0.159413
6.097 -0.33 -0.31941 -0.155 -0.159663
6.1 -0.315 -0.32032 -0.155 -0.160194
6.103 -0.315 -0.323274 -0.15 -0.161827
6.106 -0.31 -0.327066 -0.16 -0.162805
6.108 -0.33 -0.331056 -0.165 -0.164448
6.111 -0.34 -0.33507 -0.165 -0.164284
6.114 -0.335 -0.337475 -0.175 -0.162404
6.117 -0.33 -0.338853 -0.165 -0.162362
6.119 -0.345 -0.3412 -0.165 -0.163328
6.122 -0.355 -0.344261 -0.165 -0.165065
6.125 -0.365 -0.348202 -0.17 -0.168272
6.128 -0.37 -0.351496 -0.165 -0.168769
6.131 -0.345 -0.35277 -0.16 -0.16966
6.133 -0.34 -0.354443 -0.16 -0.169681
6.136 -0.34 -0.354034 -0.165 -0.17119
6.139 -0.345 -0.354926 -0.17 -0.172413
6.142 -0.36 -0.356495 -0.195 -0.173488
6.144 -0.365 -0.35655 -0.185 -0.175286
6.147 -0.36 -0.354776 -0.18 -0.176066
6.15 -0.36 -0.35279 -0.17 -0.177068
6.153 -0.345 -0.353045 -0.165 -0.178926
6.156 -0.355 -0.354096 -0.185 -0.180041
6.158 -0.365 -0.355884 -0.18 -0.179606
6.161 -0.35 -0.356219 -0.185 -0.177777
6.164 -0.36 -0.355317 -0.17 -0.174552
6.167 -0.35 -0.353596 -0.175 -0.172336
6.169 -0.34 -0.35163 -0.175 -0.172427
6.172 -0.345 -0.351733 -0.175 -0.174392
6.175 -0.355 -0.351654 -0.18 -0.175593
6.178 -0.37 -0.351878 -0.175 -0.175941
6.181 -0.35 -0.351706 -0.155 -0.174196
6.183 -0.35 -0.350129 -0.16 -0.17194
6.186 -0.35 -0.350546 -0.17 -0.172187
6.189 -0.345 -0.351947 -0.18 -0.17304
6.192 -0.35 -0.352731 -0.2 -0.174361
6.194 -0.355 -0.35391 -0.195 -0.174565
6.197 -0.36 -0.354209 -0.165 -0.174384
6.2 -0.345 -0.352027 -0.16 -0.174423
6.203 -0.355 -0.351196 -0.16 -0.175226
6.206 -0.35 -0.353156 -0.165 -0.175798
6.208 -0.36 -0.356429 -0.185 -0.176311
6.211 -0.37 -0.357844 -0.19 -0.174106
6.214 -0.355 -0.359358 -0.18 -0.172689
6.217 -0.355 -0.359786 -0.17 -0.172117
6.219 -0.35 -0.36119 -0.17 -0.174887
6.222 -0.355 -0.363128 -0.17 -0.179278
6.225 -0.36 -0.366375 -0.18 -0.181878
6.228 -0.39 -0.369871 -0.18 -0.181326
6.231 -0.385 -0.370868 -0.17 -0.179871
6.233 -0.36 -0.370719 -0.18 -0.178442
6.236 -0.36 -0.369751 -0.18 -0.177533
6.239 -0.37 -0.369673 -0.2 -0.17831
6.242 -0.37 -0.369957 -0.195 -0.179284
6.244 -0.39 -0.369596 -0.195 -0.178813
6.247 -0.375 -0.366742 -0.155 -0.17693
6.25 -0.37 -0.362904 -0.145 -0.174505
6.253 -0.35 -0.359215 -0.165 -0.172932
6.256 -0.34 -0.356093 -0.18 -0.173019
6.258 -0.345 -0.355515 -0.185 -0.172622
6.261 -0.36 -0.35517 -0.18 -0.170484
6.264 -0.36 -0.35304 -0.17 -0.168812
6.267 -0.35 -0.350817 -0.16 -0.168459
6.269 -0.35 -0.350224 -0.16 -0.170311
6.272 -0.335 -0.35177 -0.17 -0.172847
6.275 -0.36 -0.355193 -0.18 -0.176381
6.278 -0.365 -0.358257 -0.19 -0.177056
6.281 -0.365 -0.362082 -0.18 -0.177102
6.283 -0.36 -0.364411 -0.165 -0.177306
6.286 -0.36 -0.366389 -0.17 -0.178725
6.289 -0.365 -0.368601 -0.185 -0.181497
6.292 -0.375 -0.371185 -0.195 -0.183447
6.294 -0.385 -0.37304 -0.185 -0.184822
6.297 -0.385 -0.373436 -0.185 -0.184933
6.3 -0.365 -0.373053 -0.185 -0.184676
6.303 -0.37 -0.371484 -0.185 -0.185399
6.306 -0.375 -0.371397 -0.19 -0.187051
6.308 -0.37 -0.371536 -0.18 -0.187973
6.311 -0.375 -0.370521 -0.19 -0.18933
6.314 -0.365 -0.368697 -0.19 -0.188973
6.317 -0.355 -0.365399 -0.18 -0.187865
6.319 -0.355 -0.362292 -0.19 -0.187202
6.322 -0.36 -0.359333 -0.19 -0.18832
6.325 -0.365 -0.35684 -0.195 -0.187632
6.328 -0.37 -0.355798 -0.195 -0.187033
6.331 -0.36 -0.353053 -0.185 -0.185391
6.333 -0.35 -0.350536 -0.175 -0.184706
6.336 -0.34 -0.349879 -0.195 -0.186031
6.339 -0.345 -0.349498 -0.18 -0.186677
6.342 -0.34 -0.350436 -0.18 -0.187653
6.344 -0.35 -0.350847 -0.185 -0.187873
6.347 -0.345 -0.350015 -0.19 -0.185941
6.35 -0.35 -0.349787 -0.175 -0.18518
6.353 -0.36 -0.35083 -0.19 -0.186221
6.356 -0.35 -0.353949 -0.19 -0.188673
6.358 -0.36 -0.35728 -0.21 -0.191633
6.361 -0.37 -0.359863 -0.205 -0.193485
6.364 -0.36 -0.361525 -0.185 -0.193186
6.367 -0.36 -0.361767 -0.18 -0.193655
6.369 -0.355 -0.362666 -0.18 -0.195492
6.372 -0.36 -0.363238 -0.19 -0.197741
6.375 -0.375 -0.364412 -0.215 -0.199327
6.378 -0.375 -0.364972 -0.22 -0.20152
6.381 -0.37 -0.364887 -0.205 -0.20163
6.383 -0.35 -0.365198 -0.195 -0.202618
6.386 -0.355 -0.365002 -0.19 -0.204125
6.389 -0.36 -0.365417 -0.195 -0.207283
6.392 -0.365 -0.36567 -0.215 -0.210664
6.394 -0.375 -0.364833 -0.235 -0.210211
6.397 -0.37 -0.362955 -0.21 -0.208905
6.4 -0.365 -0.360224 -0.2 -0.207329
6.403 -0.36 -0.357805 -0.21 -0.207357
6.406 -0.355 -0.356492 -0.205 -0.209111
6.408 -0.36 -0.35705 -0.215 -0.210963
6.411 -0.36 -0.35676 -0.215 -0.21178
6.414 -0.35 -0.35533 -0.205 -0.211219
6.417 -0.34 -0.353318 -0.2 -0.209791
6.419 -0.345 -0.352061 -0.19 -0.208998
6.422 -0.345 -0.351017 -0.22 -0.209013
6.425 -0.355 -0.352113 -0.225 -0.210587
6.428 -0.36 -0.353645 -0.225 -0.210198
6.431 -0.36 -0.354931 -0.205 -0.207427
6.433 -0.365 -0.355464 -0.2 -0.20591
6.436 -0.345 -0.356288 -0.205 -0.205706
6.439 -0.355 -0.356755 -0.205 -0.20703
6.442 -0.35 -0.356595 -0.21 -0.207772
6.444 -0.36 -0.354371 -0.21 -0.207826
6.447 -0.355 -0.350896 -0.195 -0.206339
6.45 -0.36 -0.345866 -0.195 -0.204428
6.453 -0.345 -0.341154 -0.195 -0.204302
6.456 -0.335 -0.336612 -0.2 -0.205253
6.458 -0.33 -0.33205 -0.225 -0.205565
6.461 -0.33 -0.327156 -0.225 -0.203506
6.464 -0.31 -0.321822 -0.205 -0.201005
6.467 -0.305 -0.314045 -0.19 -0.198704
6.469 -0.3 -0.306295 -0.195 -0.196265
6.472 -0.305 -0.298864 -0.19 -0.194658
6.475 -0.295 -0.292344 -0.2 -0.192167
6.478 -0.305 -0.285788 -0.185 -0.187511
6.481 -0.285 -0.27957 -0.18 -0.182247
6.483 -0.275 -0.273565 -0.165 -0.17719
6.486 -0.265 -0.269349 -0.17 -0.172437
6.489 -0.255 -0.266868 -0.18 -0.170637
6.492 -0.255 -0.266533 -0.175 -0.168882
6.494 -0.26 -0.264313 -0.17 -0.16634
6.497 -0.265 -0.261956 -0.165 -0.16432
6.5 -0.255 -0.259016 -0.15 -0.163553
6.503 -0.255 -0.259982 -0.155 -0.163236
6.506 -0.26 -0.262164 -0.165 -0.164197
6.508 -0.28 -0.26797 -0.17 -0.163537
6.511 -0.29 -0.273174 -0.165 -0.162905
6.514 -0.28 -0.277328 -0.165 -0.161257
6.517 -0.27 -0.279716 -0.155 -0.161945
6.519 -0.255 -0.280445 -0.17 -0.164173
6.522 -0.275 -0.280721 -0.18 -0.168016
6.525 -0.29 -0.281438 -0.17 -0.170675
6.528 -0.32 -0.282761 -0.165 -0.173004
6.531 -0.3 -0.2821 -0.16 -0.174019
6.533 -0.295 -0.281294 -0.16 -0.173637
6.536 -0.27 -0.282502 -0.18 -0.175516
6.539 -0.265 -0.286455 -0.19 -0.179323
6.542 -0.27 -0.292658 -0.205 -0.182596
6.544 -0.285 -0.299125 -0.19 -0.185933
6.547 -0.3 -0.305672 -0.19 -0.188303
6.55 -0.31 -0.311175 -0.17 -0.190616
6.553 -0.315 -0.317344 -0.185 -0.194684
6.556 -0.32 -0.32609 -0.19 -0.198047
6.558 -0.35 -0.33641 -0.195 -0.20068
6.561 -0.37 -0.345997 -0.225 -0.201986
6.564 -0.365 -0.353874 -0.215 -0.201956
6.567 -0.365 -0.358859 -0.2 -0.202527
6.569 -0.365 -0.364052 -0.205 -0.204483
6.572 -0.37 -0.368651 -0.205 -0.209436
6.575 -0.37 -0.373694 -0.205 -0.212378
6.578 -0.37 -0.378293 -0.22 -0.21441
6.581 -0.38 -0.380683 -0.21 -0.214514
6.583 -0.36 -0.381427 -0.21 -0.215263
6.586 -0.375 -0.382282 -0.21 -0.215703
6.589 -0.375 -0.385054 -0.215 -0.216187
6.592 -0.4 -0.388821 -0.225 -0.218066
6.594 -0.42 -0.391934 -0.235 -0.219665
6.597 -0.405 -0.393733 -0.23 -0.218478
6.6 -0.4 -0.394308 -0.205 -0.217205
6.603 -0.385 -0.395144 -0.215 -0.216303
6.606 -0.38 -0.395794 -0.225 -0.216847
6.608 -0.4 -0.395379 -0.225 -0.218516
6.611 -0.415 -0.397846 -0.22 -0.220675
6.614 -0.405 -0.398079 -0.22 -0.226242
6.617 -0.395 -0.398392 -0.215 -0.236005
6.619 -0.395 -0.401538 -0.225 -0.252154
6.622 -0.395 -0.412367 -0.225 -0.268941
6.625 -0.41 -0.432234 -0.255 -0.282316
6.628 -0.43 -0.455624 -0.275 -0.289969
6.631 -0.44 -0.479304 -0.29 -0.290618
6.633 -0.455 -0.502012 -0.29 -0.287122
6.636 -0.49 -0.523408 -0.315 -0.278176
6.639 -0.485 -0.540696 -0.33 -0.260817
6.642 -0.52 -0.545953 -0.305 -0.229104
6.644 -0.57 -0.527646 -0.245 -0.176447
6.647 -0.575 -0.480026 -0.115 -0.100018
6.65 -0.525 -0.398916 -0.025 -0.00655934
6.653 -0.42 -0.283905 0.03 0.0896649
6.656 -0.305 -0.141492 0.08 0.168705
6.658 -0.19 0.0115446 0.155 0.224732
6.661 -0.02 0.159647 0.265 0.257202
6.664 0.22 0.289941 0.385 0.267326
6.667 0.485 0.391571 0.5 0.253467
6.669 0.715 0.463004 0.545 0.218653
6.672 0.845 0.495667 0.45 0.165896
6.675 0.885 0.48645 0.215 0.10017
6.678 0.79 0.438669 -0.09 0.0306473
6.681 0.56 0.359076 -0.325 -0.0414841
6.683 0.225 0.255458 -0.39 -0.115368
6.686 -0.07 0.131579 -0.385 -0.190557
6.689 -0.285 -0.00767245 -0.365 -0.260987
6.692 -0.425 -0.15184 -0.335 -0.317689
6.694 -0.5 -0.286597 -0.295 -0.35517
6.697 -0.55 -0.399109 -0.285 -0.367375
6.7 -0.535 -0.480669 -0.27 -0.354343
6.703 -0.5 -0.528864 -0.265 -0.325227
6.706 -0.465 -0.543933 -0.27 -0.29425
6.708 -0.45 -0.531406 -0.275 -0.271646
6.711 -0.45 -0.503638 -0.285 -0.262646
6.714 -0.435 -0.474204 -0.265 -0.258359
6.717 -0.42 -0.449161 -0.25 -0.258432
6.719 -0.41 -0.431079 -0.26 -0.260505
6.722 -0.41 -0.421147 -0.26 -0.262462
6.725 -0.415 -0.416487 -0.265 -0.262368
6.728 -0.42 -0.417646 -0.27 -0.262141
6.731 -0.425 -0.420029 -0.265 -0.260804
6.733 -0.42 -0.422965 -0.245 -0.259228
6.736 -0.43 -0.425711 -0.26 -0.258441
6.739 -0.43 -0.42934 -0.255 -0.259887
6.742 -0.44 -0.433138 -0.28 -0.260809
6.744 -0.45 -0.43627 -0.26 -0.260064
6.747 -0.45 -0.438516 -0.25 -0.256814
6.75 -0.43 -0.438226 -0.25 -0.253998
6.753 -0.43 -0.437651 -0.255 -0.253307
6.756 -0.43 -0.437965 -0.255 -0.253248
6.758 -0.445 -0.437658 -0.26 -0.254446
6.761 -0.445 -0.437303 -0.26 -0.254389
6.764 -0.44 -0.435579 -0.255 -0.251697
6.767 -0.425 -0.434487 -0.225 -0.250441
6.769 -0.43 -0.433978 -0.24 -0.248915
6.772 -0.43 -0.434317 -0.245 -0.249948
6.775 -0.425 -0.435706 -0.265 -0.250561
6.778 -0.445 -0.436938 -0.275 -0.249869
6.781 -0.445 -0.436726 -0.25 -0.248357
6.783 -0.43 -0.435628 -0.245 -0.247378
6.786 -0.435 -0.435631 -0.23 -0.246948
6.789 -0.435 -0.435758 -0.24 -0.248498
6.792 -0.445 -0.436402 -0.255 -0.248225
6.794 -0.445 -0.436446 -0.25 -0.247983
6.797 -0.435 -0.434742 -0.25 -0.245657
6.8 -0.43 -0.433431 -0.245 -0.242939
6.803 -0.425 -0.432761 -0.235 -0.241304
6.806 -0.43 -0.431378 -0.24 -0.242494
6.808 -0.43 -0.432189 -0.25 -0.243781
6.811 -0.44 -0.43226 -0.25 -0.243258
6.814 -0.42 -0.430928 -0.245 -0.242215
6.817 -0.43 -0.428535 -0.22 -0.240152
6.819 -0.425 -0.427551 -0.245 -0.239706
6.822 -0.43 -0.427944 -0.245 -0.241558
6.825 -0.44 -0.429992 -0.24 -0.242555
6.828 -0.44 -0.431489 -0.255 -0.243879
6.831 -0.43 -0.432001 -0.245 -0.24424
6.833 -0.43 -0.432224 -0.225 -0.244583
6.836 -0.415 -0.433122 -0.24 -0.245386
6.839 -0.425 -0.434225 -0.25 -0.246925
6.842 -0.43 -0.436824 -0.26 -0.248486
6.844 -0.455 -0.437283 -0.265 -0.250717
6.847 -0.445 -0.437081 -0.255 -0.25111
6.85 -0.445 -0.436124 -0.24 -0.253153
6.853 -0.43 -0.435425 -0.25 -0.255368
6.856 -0.43 -0.436025 -0.25 -0.258619
6.858 -0.44 -0.436126 -0.265 -0.261149
6.861 -0.44 -0.434382 -0.26 -0.26299
6.864 -0.435 -0.432303 -0.26 -0.26255
6.867 -0.43 -0.428025 -0.265 -0.261767
6.869 -0.415 -0.42388 -0.275 -0.263308
6.872 -0.415 -0.421592 -0.27 -0.266067
6.875 -0.425 -0.420963 -0.27 -0.268073
6.878 -0.425 -0.419856 -0.27 -0.268519
6.881 -0.42 -0.418962 -0.27 -0.266363
6.883 -0.405 -0.41566 -0.245 -0.264444
6.886 -0.405 -0.413883 -0.265 -0.262679
6.889 -0.415 -0.413509 -0.265 -0.262988
6.892 -0.415 -0.413346 -0.27 -0.264091
6.894 -0.425 -0.412636 -0.285 -0.263328
6.897 -0.43 -0.411741 -0.26 -0.263831
6.9 -0.405 -0.409771 -0.245 -0.26592
6.903 -0.405 -0.409487 -0.255 -0.269291
6.906 -0.405 -0.41175 -0.265 -0.274289
6.908 -0.405 -0.41474 -0.285 -0.27915
6.911 -0.43 -0.418078 -0.295 -0.285696
6.914 -0.415 -0.42073 -0.3 -0.289858
6.917 -0.41 -0.422674 -0.295 -0.29541
6.919 -0.415 -0.425794 -0.285 -0.302493
6.922 -0.43 -0.431291 -0.32 -0.310745
6.925 -0.445 -0.437228 -0.325 -0.32034
6.928 -0.465 -0.444078 -0.335 -0.328758
6.931 -0.46 -0.45026 -0.335 -0.334796
6.933 -0.45 -0.455307 -0.33 -0.341041
6.936 -0.455 -0.461504 -0.35 -0.347643
6.939 -0.46 -0.468024 -0.345 -0.35525
6.942 -0.465 -0.475229 -0.365 -0.362852
6.944 -0.485 -0.480902 -0.38 -0.369472
6.947 -0.495 -0.483913 -0.375 -0.374675
6.95 -0.475 -0.486051 -0.375 -0.377649
6.953 -0.49 -0.488671 -0.385 -0.383833
6.956 -0.5 -0.491749 -0.385 -0.390214
6.958 -0.495 -0.496352 -0.4 -0.395341
6.961 -0.515 -0.499122 -0.4 -0.398715
6.964 -0.5 -0.498879 -0.395 -0.398686
6.967 -0.485 -0.497748 -0.39 -0.398298
6.969 -0.49 -0.496814 -0.39 -0.396528
6.972 -0.485 -0.494619 -0.4 -0.394716
6.975 -0.5 -0.492179 -0.405 -0.391381
6.978 -0.5 -0.489861 -0.41 -0.38567
6.981 -0.49 -0.484227 -0.38 -0.378141
6.983 -0.48 -0.478519 -0.355 -0.369295
6.986 -0.46 -0.472752 -0.35 -0.358687
6.989 -0.46 -0.465933 -0.34 -0.348656
6.992 -0.47 -0.461017 -0.345 -0.33645
6.994 -0.465 -0.454078 -0.335 -0.322393
6.997 -0.44 -0.444362 -0.31 -0.307337
7 -0.43 -0.434315 -0.285 -0.292398
7.003 -0.425 -0.423771 -0.28 -0.279995
7.006 -0.41 -0.414493 -0.27 -0.269011
7.008 -0.41 -0.405577 -0.255 -0.259451
7.011 -0.4 -0.397359 -0.245 -0.2488
7.014 -0.39 -0.387457 -0.235 -0.23701
7.017 -0.38 -0.376782 -0.21 -0.226453
7.019 -0.355 -0.367033 -0.215 -0.217292
7.022 -0.35 -0.358998 -0.22 -0.211693
7.025 -0.355 -0.351491 -0.22 -0.207244
7.028 -0.35 -0.343509 -0.215 -0.201948
7.031 -0.34 -0.335711 -0.19 -0.19671
7.033 -0.33 -0.327929 -0.18 -0.192802
7.036 -0.325 -0.322323 -0.18 -0.190191
7.039 -0.305 -0.317973 -0.185 -0.188486
7.042 -0.32 -0.31474 -0.195 -0.185881
7.044 -0.315 -0.312278 -0.195 -0.184575
7.047 -0.305 -0.310646 -0.19 -0.181311
7.05 -0.3 -0.308776 -0.17 -0.179619
7.053 -0.305 -0.307713 -0.17 -0.18042
7.056 -0.305 -0.309109 -0.185 -0.181793
7.058 -0.31 -0.311026 -0.185 -0.183171
7.061 -0.33 -0.312694 -0.185 -0.182321
7.064 -0.31 -0.313741 -0.18 -0.180812
7.067 -0.315 -0.314917 -0.17 -0.179886
7.069 -0.315 -0.315409 -0.19 -0.179787
7.072 -0.32 -0.317172 -0.18 -0.18069
7.075 -0.325 -0.319461 -0.195 -0.182345
7.078 -0.325 -0.320469 -0.19 -0.183622
7.081 -0.325 -0.320149 -0.17 -0.183182
7.083 -0.31 -0.319755 -0.17 -0.181692
7.086 -0.31 -0.31964 -0.175 -0.182301
7.089 -0.315 -0.320562 -0.19 -0.183797
7.092 -0.325 -0.322396 -0.195 -0.185276
7.094 -0.33 -0.322703 -0.19 -0.186288
7.097 -0.325 -0.322182 -0.185 -0.185075
7.1 -0.325 -0.32184 -0.185 -0.185691
7.103 -0.315 -0.322623 -0.18 -0.187465
7.106 -0.32 -0.323784 -0.185 -0.189214
7.108 -0.33 -0.325322 -0.19 -0.191002
7.111 -0.335 -0.326803 -0.205 -0.190729
7.114 -0.33 -0.32661 -0.195 -0.190021
7.117 -0.315 -0.324586 -0.185 -0.188812
7.119 -0.32 -0.323588 -0.185 -0.190203
7.122 -0.32 -0.323687 -0.185 -0.192947
7.125 -0.335 -0.325271 -0.205 -0.195396
7.128 -0.335 -0.326131 -0.205 -0.197064
7.131 -0.325 -0.326824 -0.18 -0.198339
7.133 -0.325 -0.327252 -0.195 -0.1983
7.136 -0.32 -0.328295 -0.195 -0.199722
7.139 -0.32 -0.33102 -0.205 -0.201901
7.142 -0.325 -0.334926 -0.21 -0.204975
7.144 -0.35 -0.338382 -0.225 -0.206942
7.147 -0.345 -0.339737 -0.21 -0.207596
7.15 -0.345 -0.340526 -0.2 -0.208424
7.153 -0.335 -0.342097 -0.2 -0.208756
7.156 -0.345 -0.344663 -0.205 -0.210471
7.158 -0.355 -0.347215 -0.21 -0.210495
7.161 -0.355 -0.348135 -0.225 -0.208099
7.164 -0.355 -0.347842 -0.21 -0.205827
7.167 -0.345 -0.346443 -0.2 -0.203941
7.169 -0.335 -0.34457 -0.2 -0.203385
7.172 -0.335 -0.343135 -0.205 -0.203429
7.175 -0.345 -0.343442 -0.21 -0.20389
7.178 -0.355 -0.343521 -0.2 -0.204242
7.181 -0.34 -0.341571 -0.195 -0.20313
7.183 -0.335 -0.339627 -0.185 -0.202666
7.186 -0.33 -0.339194 -0.205 -0.203063
7.189 -0.335 -0.340271 -0.21 -0.204848
7.192 -0.345 -0.340904 -0.22 -0.207215
7.194 -0.35 -0.341747 -0.215 -0.209202
7.197 -0.35 -0.341808 -0.205 -0.209753
7.2 -0.34 -0.340477 -0.2 -0.210279
7.203 -0.335 -0.340531 -0.215 -0.211183
7.206 -0.33 -0.343253 -0.21 -0.213442
7.208 -0.36 -0.346729 -0.225 -0.214554
7.211 -0.355 -0.348802 -0.22 -0.214067
7.214 -0.345 -0.349997 -0.215 -0.211652
7.217 -0.335 -0.349969 -0.2 -0.211022
7.219 -0.345 -0.350516 -0.21 -0.211427
7.222 -0.35 -0.352568 -0.205 -0.211907
7.225 -0.36 -0.354662 -0.215 -0.212529
7.228 -0.38 -0.356255 -0.215 -0.210729
7.231 -0.37 -0.356339 -0.215 -0.207846
7.233 -0.345 -0.355856 -0.2 -0.206628
7.236 -0.345 -0.355114 -0.2 -0.206174
7.239 -0.35 -0.355852 -0.21 -0.207633
7.242 -0.355 -0.357246 -0.22 -0.207936
7.244 -0.365 -0.357091 -0.21 -0.207614
7.247 -0.36 -0.354935 -0.195 -0.206093
7.25 -0.345 -0.353076 -0.2 -0.204837
7.253 -0.345 -0.351375 -0.19 -0.203859
7.256 -0.35 -0.351275 -0.21 -0.204032
7.258 -0.36 -0.352734 -0.22 -0.203714
7.261 -0.36 -0.353584 -0.215 -0.203156
7.264 -0.35 -0.351543 -0.2 -0.201244
7.267 -0.355 -0.349467 -0.185 -0.199266
7.269 -0.34 -0.349295 -0.195 -0.198125
7.272 -0.345 -0.350513 -0.2 -0.198756
7.275 -0.355 -0.352579 -0.2 -0.198334
7.278 -0.355 -0.354008 -0.205 -0.19756
7.281 -0.355 -0.354539 -0.195 -0.196277
7.283 -0.34 -0.352811 -0.185 -0.194485
7.286 -0.34 -0.350868 -0.19 -0.19492
7.289 -0.345 -0.348329 -0.195 -0.197228
7.292 -0.365 -0.346123 -0.2 -0.197672
7.294 -0.37 -0.342797 -0.2 -0.197099
7.297 -0.35 -0.339542 -0.2 -0.194778
7.3 -0.33 -0.332846 -0.19 -0.193181
7.303 -0.32 -0.326121 -0.2 -0.192916
7.306 -0.315 -0.319631 -0.19 -0.192869
7.308 -0.295 -0.313233 -0.2 -0.191757
7.311 -0.305 -0.306649 -0.195 -0.188627
7.314 -0.295 -0.297875 -0.18 -0.18457
7.317 -0.3 -0.28837 -0.16 -0.181484
7.319 -0.285 -0.280013 -0.18 -0.178861
7.322 -0.275 -0.274155 -0.18 -0.176971
7.325 -0.26 -0.271031 -0.185 -0.174132
7.328 -0.275 -0.267489 -0.18 -0.170727
7.331 -0.265 -0.262921 -0.16 -0.166782
7.333 -0.26 -0.25951 -0.145 -0.163205
7.336 -0.25 -0.257774 -0.155 -0.159184
7.339 -0.245 -0.255309 -0.17 -0.157182
7.342 -0.255 -0.25535 -0.17 -0.154801
7.344 -0.265 -0.257463 -0.155 -0.150512
7.347 -0.26 -0.261093 -0.145 -0.144413
7.35 -0.26 -0.263885 -0.13 -0.140765
7.353 -0.25 -0.265067 -0.135 -0.138498
7.356 -0.26 -0.263849 -0.14 -0.138671
7.358 -0.28 -0.264318 -0.135 -0.140029
7.361 -0.28 -0.264577 -0.14 -0.139856
7.364 -0.275 -0.264402 -0.14 -0.138414
7.367 -0.285 -0.263941 -0.125 -0.137846
7.369 -0.28 -0.263259 -0.13 -0.141285
7.372 -0.255 -0.265263 -0.15 -0.146352
7.375 -0.245 -0.269255 -0.165 -0.150963
7.378 -0.245 -0.274381 -0.165 -0.154881
7.381 -0.26 -0.279492 -0.165 -0.157524
7.383 -0.285 -0.284555 -0.155 -0.161151
7.386 -0.29 -0.291773 -0.15 -0.166141
7.389 -0.3 -0.302666 -0.165 -0.169737
7.392 -0.32 -0.314608 -0.18 -0.173128
7.394 -0.335 -0.325458 -0.195 -0.175485
7.397 -0.355 -0.336742 -0.175 -0.176036
7.4 -0.35 -0.347362 -0.17 -0.176679
7.403 -0.355 -0.355497 -0.175 -0.179778
7.406 -0.355 -0.361546 -0.185 -0.184456
7.408 -0.375 -0.365505 -0.195 -0.187913
7.411 -0.385 -0.36762 -0.19 -0.19041
7.414 -0.38 -0.369137 -0.175 -0.191834
7.417 -0.36 -0.368444 -0.185 -0.191306
7.419 -0.35 -0.367207 -0.19 -0.192439
7.422 -0.36 -0.367511 -0.205 -0.195397
7.425 -0.365 -0.367919 -0.215 -0.198053
7.428 -0.37 -0.367748 -0.215 -0.198838
7.431 -0.37 -0.36687 -0.195 -0.198508
7.433 -0.365 -0.365794 -0.18 -0.197851
7.436 -0.36 -0.365013 -0.19 -0.198385
7.439 -0.365 -0.366759 -0.2 -0.199224
7.442 -0.37 -0.37016 -0.2 -0.198097
7.444 -0.385 -0.372934 -0.215 -0.195095
7.447 -0.385 -0.373182 -0.2 -0.192537
7.45 -0.365 -0.371379 -0.18 -0.191406
7.453 -0.36 -0.370263 -0.195 -0.192372
7.456 -0.38 -0.371587 -0.2 -0.197641
7.458 -0.385 -0.375548 -0.205 -0.207538
7.461 -0.395 -0.381018 -0.21 -0.222896
7.464 -0.395 -0.388236 -0.2 -0.24202
7.467 -0.385 -0.401641 -0.205 -0.260749
7.469 -0.38 -0.423153 -0.235 -0.276326
7.472 -0.395 -0.450634 -0.26 -0.285624
7.475 -0.425 -0.479934 -0.285 -0.288472
7.478 -0.465 -0.509336 -0.3 -0.281074
7.481 -0.5 -0.533665 -0.325 -0.260302
7.483 -0.515 -0.547079 -0.32 -0.226914
7.486 -0.53 -0.544436 -0.29 -0.173047
7.489 -0.56 -0.514483 -0.19 -0.0942971
7.492 -0.585 -0.45144 -0.055 0.00561294
7.494 -0.53 -0.35019 0.05 0.106994
7.497 -0.41 -0.213493 0.15 0.191721
7.5 -0.255 -0.0571592 0.245 0.251839
7.503 -0.105 0.0951144 0.345 0.289487
7.506 0.105 0.223727 0.445 0.306652
7.508 0.355 0.318629 0.53 0.303141
7.511 0.6 0.380026 0.595 0.277108
7.514 0.81 0.409438 0.52 0.232685
7.517 0.89 0.407676 0.275 0.170652
7.519 0.83 0.3743 -0.085 0.0987169
7.522 0.58 0.308259 -0.3 0.0224518
7.525 0.185 0.214518 -0.335 -0.0551765
7.528 -0.205 0.101478 -0.285 -0.129524
7.531 -0.45 -0.0226234 -0.25 -0.196662
7.533 -0.525 -0.15221 -0.245 -0.252426
7.536 -0.495 -0.276919 -0.235 -0.291545
7.539 -0.465 -0.386188 -0.215 -0.309637
7.542 -0.435 -0.467566 -0.23 -0.301489
7.544 -0.415 -0.512483 -0.23 -0.274137
7.547 -0.415 -0.521455 -0.24 -0.24534
7.55 -0.415 -0.499263 -0.235 -0.230459
7.553 -0.4 -0.462903 -0.235 -0.230964
7.556 -0.395 -0.430427 -0.245 -0.236247
7.558 -0.405 -0.412373 -0.255 -0.239748
7.561 -0.425 -0.407104 -0.25 -0.241301
7.564 -0.435 -0.409699 -0.24 -0.242213
7.567 -0.415 -0.412175 -0.225 -0.241803
7.569 -0.415 -0.415768 -0.23 -0.240549
7.572 -0.415 -0.418135 -0.25 -0.240096
7.575 -0.415 -0.419387 -0.24 -0.238753
7.578 -0.43 -0.419 -0.255 -0.236911
7.581 -0.42 -0.418375 -0.23 -0.233952
7.583 -0.41 -0.416209 -0.225 -0.23078
7.586 -0.405 -0.41289 -0.225 -0.229568
7.589 -0.42 -0.409861 -0.225 -0.230492
7.592 -0.41 -0.407671 -0.23 -0.230619
7.594 -0.42 -0.406636 -0.24 -0.229072
7.597 -0.4 -0.404508 -0.225 -0.226177
7.6 -0.395 -0.401894 -0.215 -0.22338
7.603 -0.385 -0.400552 -0.215 -0.2232
7.606 -0.4 -0.398356 -0.225 -0.223356
7.608 -0.4 -0.398586 -0.235 -0.224658
7.611 -0.4 -0.398978 -0.24 -0.224021
7.614 -0.4 -0.398261 -0.225 -0.223012
7.617 -0.395 -0.39718 -0.205 -0.22261
7.619 -0.4 -0.397525 -0.21 -0.223186
7.622 -0.4 -0.398581 -0.225 -0.223869
7.625 -0.4 -0.401203 -0.23 -0.225332
7.628 -0.41 -0.402921 -0.235 -0.225185
7.631 -0.395 -0.403408 -0.225 -0.223707
7.633 -0.41 -0.402352 -0.215 -0.222295
7.636 -0.4 -0.403029 -0.22 -0.222064
7.639 -0.395 -0.403122 -0.23 -0.22373
7.642 -0.405 -0.403764 -0.235 -0.225337
7.644 -0.41 -0.404751 -0.23 -0.226203
7.647 -0.415 -0.405165 -0.215 -0.224804
7.65 -0.405 -0.405423 -0.215 -0.222954
7.653 -0.4 -0.405945 -0.215 -0.222793
7.656 -0.395 -0.406541 -0.225 -0.224274
7.658 -0.405 -0.407944 -0.235 -0.227069
7.661 -0.415 -0.407278 -0.235 -0.227607
7.664 -0.405 -0.407607 -0.23 -0.227332
7.667 -0.415 -0.407484 -0.215 -0.226368
7.669 -0.41 -0.406847 -0.225 -0.228006
7.672 -0.405 -0.406705 -0.225 -0.229635
7.675 -0.405 -0.406268 -0.235 -0.230451
7.678 -0.41 -0.406489 -0.245 -0.229706
7.681 -0.405 -0.405536 -0.24 -0.228763
7.683 -0.4 -0.402604 -0.225 -0.227958
7.686 -0.395 -0.39999 -0.21 -0.22864
7.689 -0.405 -0.39892 -0.23 -0.230199
7.692 -0.405 -0.399112 -0.23 -0.231782
7.694 -0.4 -0.398705 -0.245 -0.233074
7.697 -0.395 -0.398338 -0.22 -0.232272
7.7 -0.39 -0.398073 -0.225 -0.232739
7.703 -0.395 -0.398717 -0.235 -0.23405
7.706 -0.39 -0.400469 -0.245 -0.236804
7.708 -0.395 -0.40218 -0.25 -0.239694
7.711 -0.42 -0.403325 -0.25 -0.242561
7.714 -0.415 -0.403622 -0.24 -0.245505
7.717 -0.405 -0.402636 -0.24 -0.246664
7.719 -0.4 -0.404341 -0.245 -0.250422
7.722 -0.4 -0.40634 -0.25 -0.255227
7.725 -0.415 -0.408988 -0.27 -0.261458
7.728 -0.42 -0.41048 -0.27 -0.26542
7.731 -0.41 -0.410225 -0.265 -0.269693
7.733 -0.395 -0.40965 -0.26 -0.273888
7.736 -0.4 -0.409091 -0.28 -0.280338
7.739 -0.405 -0.409552 -0.295 -0.288001
7.742 -0.415 -0.411607 -0.295 -0.295029
7.744 -0.435 -0.413718 -0.315 -0.301548
7.747 -0.415 -0.414287 -0.31 -0.306638
7.75 -0.415 -0.413732 -0.305 -0.312409
7.753 -0.4 -0.413151 -0.31 -0.31875
7.756 -0.405 -0.414098 -0.325 -0.327056
7.758 -0.42 -0.416275 -0.33 -0.333076
7.761 -0.43 -0.417631 -0.35 -0.337326
7.764 -0.425 -0.416814 -0.34 -0.33993
7.767 -0.41 -0.415374 -0.335 -0.343622
7.769 -0.41 -0.414567 -0.35 -0.348872
7.772 -0.405 -0.414778 -0.35 -0.353573
7.775 -0.415 -0.417623 -0.37 -0.357659
7.778 -0.425 -0.418367 -0.365 -0.360121
7.781 -0.425 -0.419308 -0.355 -0.361018
7.783 -0.42 -0.41866 -0.335 -0.359343
7.786 -0.41 -0.419075 -0.355 -0.357089
7.789 -0.41 -0.420276 -0.365 -0.354372
7.792 -0.42 -0.421697 -0.37 -0.350865
7.794 -0.43 -0.422211 -0.36 -0.344595
7.797 -0.425 -0.42009 -0.335 -0.33516
7.8 -0.42 -0.416366 -0.315 -0.325688
7.803 -0.405 -0.411625 -0.315 -0.315144
7.806 -0.415 -0.40676 -0.305 -0.304362
7.808 -0.41 -0.401912 -0.285 -0.291682
7.811 -0.41 -0.395002 -0.285 -0.277256
7.814 -0.385 -0.386839 -0.27 -0.260566
7.817 -0.37 -0.376865 -0.24 -0.245739
7.819 -0.36 -0.367223 -0.23 -0.232944
7.822 -0.35 -0.357805 -0.22 -0.222506
7.825 -0.35 -0.349889 -0.22 -0.213709
7.828 -0.35 -0.342283 -0.2 -0.205306
7.831 -0.335 -0.334528 -0.18 -0.196435
7.833 -0.32 -0.326407 -0.175 -0.189854
7.836 -0.305 -0.320582 -0.18 -0.184964
7.839 -0.315 -0.315564 -0.185 -0.181084
7.842 -0.315 -0.31288 -0.19 -0.178575
7.844 -0.32 -0.30882 -0.185 -0.176943
7.847 -0.305 -0.304673 -0.18 -0.174402
7.85 -0.305 -0.299832 -0.175 -0.172421
7.853 -0.295 -0.296357 -0.17 -0.171149
7.856 -0.29 -0.293403 -0.165 -0.171729
7.858 -0.295 -0.292194 -0.175 -0.170969
7.861 -0.295 -0.290159 -0.17 -0.168238
7.864 -0.285 -0.28729 -0.165 -0.16489
7.867 -0.285 -0.283498 -0.155 -0.161582
7.869 -0.27 -0.281984 -0.16 -0.160801
7.872 -0.28 -0.281912 -0.16 -0.161136
7.875 -0.28 -0.282929 -0.165 -0.160279
7.878 -0.295 -0.283236 -0.165 -0.159232
7.881 -0.28 -0.283614 -0.16 -0.157499
7.883 -0.285 -0.283519 -0.145 -0.156263
7.886 -0.275 -0.284751 -0.15 -0.155616
7.889 -0.285 -0.286393 -0.16 -0.156831
7.892 -0.295 -0.289157 -0.165 -0.158323
7.894 -0.305 -0.291535 -0.175 -0.15896
7.897 -0.295 -0.292517 -0.15 -0.158464
7.9 -0.285 -0.29221 -0.14 -0.1584
7.903 -0.285 -0.293233 -0.155 -0.159434
7.906 -0.29 -0.29434 -0.16 -0.161363
7.908 -0.3 -0.295824 -0.175 -0.163176
7.911 -0.31 -0.296643 -0.175 -0.164018
7.914 -0.295 -0.29729 -0.17 -0.164086
7.917 -0.3 -0.296131 -0.16 -0.16482
7.919 -0.29 -0.295834 -0.155 -0.166572
7.922 -0.285 -0.297185 -0.165 -0.169014
7.925 -0.305 -0.300137 -0.175 -0.171742
7.928 -0.31 -0.301783 -0.18 -0.172548
7.931 -0.3 -0.302074 -0.17 -0.171425
7.933 -0.295 -0.301239 -0.165 -0.171723
7.936 -0.305 -0.301912 -0.17 -0.17303
7.939 -0.3 -0.304802 -0.185 -0.175997
7.942 -0.305 -0.308135 -0.185 -0.178602
7.944 -0.32 -0.309874 -0.18 -0.180551
7.947 -0.32 -0.312113 -0.175 -0.180503
7.95 -0.31 -0.312471 -0.17 -0.179946
7.953 -0.3 -0.313519 -0.18 -0.18145
7.956 -0.31 -0.316399 -0.185 -0.183751
7.958 -0.32 -0.319493 -0.2 -0.185979
7.961 -0.34 -0.320749 -0.195 -0.186811
7.964 -0.33 -0.321512 -0.185 -0.18688
7.967 -0.31 -0.321716 -0.175 -0.186677
7.969 -0.315 -0.322831 -0.18 -0.18887
7.972 -0.325 -0.325221 -0.185 -0.192337
7.975 -0.325 -0.328385 -0.205 -0.194559
7.978 -0.345 -0.330212 -0.21 -0.194959
7.981 -0.33 -0.330562 -0.19 -0.194359
7.983 -0.32 -0.329895 -0.185 -0.194557
7.986 -0.32 -0.328983 -0.19 -0.194649
7.989 -0.335 -0.330059 -0.2 -0.196932
7.992 -0.335 -0.33253 -0.205 -0.198797
7.994 -0.355 -0.333851 -0.215 -0.200196
7.997 -0.34 -0.333086 -0.2 -0.198503
8 -0.32 -0.332296 -0.18 -0.197164
8.003 -0.315 -0.332985 -0.185 -0.196115
8.006 -0.33 -0.334183 -0.2 -0.197234
8.008 -0.34 -0.33676 -0.205 -0.198305
8.011 -0.34 -0.337999 -0.2 -0.197775
8.014 -0.35 -0.338254 -0.205 -0.19549
8.017 -0.33 -0.337739 -0.19 -0.193485
8.019 -0.33 -0.338736 -0.19 -0.193467
8.022 -0.34 -0.339505 -0.18 -0.193589
8.025 -0.35 -0.342408 -0.205 -0.194277
8.028 -0.355 -0.34417 -0.2 -0.194168
8.031 -0.345 -0.343315 -0.195 -0.191505
8.033 -0.335 -0.341084 -0.18 -0.189426
8.036 -0.335 -0.339479 -0.185 -0.189639
8.039 -0.34 -0.339649 -0.185 -0.190033
8.042 -0.34 -0.339575 -0.2 -0.189416
8.044 -0.345 -0.339511 -0.2 -0.189193
8.047 -0.335 -0.336804 -0.18 -0.187949
8.05 -0.335 -0.33391 -0.18 -0.186399
8.053 -0.325 -0.332551 -0.185 -0.185613
8.056 -0.325 -0.331505 -0.185 -0.187981
8.058 -0.335 -0.331755 -0.2 -0.188988
8.061 -0.34 -0.331069 -0.195 -0.188344
8.064 -0.34 -0.329635 -0.175 -0.186796
8.067 -0.32 -0.326666 -0.175 -0.185601
8.069 -0.315 -0.325392 -0.185 -0.185023
8.072 -0.32 -0.325489 -0.19 -0.186087
8.075 -0.335 -0.326677 -0.195 -0.18771
8.078 -0.335 -0.326429 -0.205 -0.186757
8.081 -0.32 -0.326254 -0.185 -0.184443
8.083 -0.325 -0.324181 -0.16 -0.181996
8.086 -0.315 -0.323084 -0.17 -0.180845
8.089 -0.32 -0.323506 -0.19 -0.181286
8.092 -0.32 -0.325044 -0.19 -0.18194
8.094 -0.345 -0.326615 -0.19 -0.180912
8.097 -0.335 -0.326512 -0.18 -0.177939
8.1 -0.32 -0.326273 -0.17 -0.175834
8.103 -0.31 -0.32618 -0.16 -0.176008
8.106 -0.32 -0.327481 -0.17 -0.177422
8.108 -0.32 -0.327623 -0.185 -0.179598
8.111 -0.34 -0.32508 -0.195 -0.180441
8.114 -0.33 -0.32109 -0.18 -0.179282
8.117 -0.32 -0.314872 -0.175 -0.178915
8.119 -0.31 -0.309186 -0.17 -0.18052
8.122 -0.31 -0.303326 -0.17 -0.182859
8.125 -0.31 -0.297512 -0.195 -0.183748
8.128 -0.295 -0.290722 -0.2 -0.182496
8.131 -0.28 -0.283344 -0.18 -0.180178
8.133 -0.255 -0.274024 -0.17 -0.176484
8.136 -0.25 -0.264689 -0.175 -0.173993
8.139 -0.25 -0.255263 -0.18 -0.172911
8.142 -0.255 -0.248295 -0.18 -0.17171
8.144 -0.26 -0.241845 -0.17 -0.168163
8.147 -0.24 -0.235773 -0.155 -0.163723
8.15 -0.22 -0.230324 -0.135 -0.158647
8.153 -0.23 -0.227976 -0.145 -0.152908
8.156 -0.23 -0.227887 -0.16 -0.149469
8.158 -0.215 -0.227936 -0.16 -0.147022
8.161 -0.22 -0.229233 -0.16 -0.142208
8.164 -0.225 -0.229887 -0.14 -0.136373
8.167 -0.23 -0.231033 -0.12 -0.131402
8.169 -0.23 -0.233544 -0.12 -0.129274
8.172 -0.235 -0.234397 -0.13 -0.128486
8.175 -0.245 -0.234737 -0.13 -0.127988
8.178 -0.255 -0.233946 -0.125 -0.127238
8.181 -0.24 -0.232066 -0.125 -0.125178
8.183 -0.235 -0.230739 -0.115 -0.124371
8.186 -0.245 -0.230454 -0.11 -0.126275
8.189 -0.235 -0.230253 -0.13 -0.13016
8.192 -0.23 -0.231582 -0.145 -0.134318
8.194 -0.22 -0.233496 -0.155 -0.137164
8.197 -0.195 -0.236651 -0.14 -0.139948
8.2 -0.22 -0.240224 -0.14 -0.14286
8.203 -0.245 -0.246079 -0.145 -0.147882
8.206 -0.26 -0.255301 -0.15 -0.153807
8.208 -0.27 -0.266585 -0.16 -0.157632
8.211 -0.29 -0.277759 -0.165 -0.160438
8.214 -0.3 -0.288619 -0.16 -0.162185
8.217 -0.305 -0.299895 -0.15 -0.163171
8.219 -0.305 -0.310686 -0.165 -0.16604
8.222 -0.32 -0.321004 -0.185 -0.169789
8.225 -0.33 -0.329956 -0.18 -0.173655
8.228 -0.35 -0.334009 -0.185 -0.176093
8.231 -0.35 -0.33667 -0.17 -0.177254
8.233 -0.335 -0.338419 -0.155 -0.179444
8.236 -0.335 -0.341275 -0.175 -0.180391
8.239 -0.335 -0.343481 -0.19 -0.1818
8.242 -0.34 -0.346147 -0.195 -0.182784
8.244 -0.35 -0.348007 -0.195 -0.182735
8.247 -0.35 -0.348839 -0.18 -0.180561
8.25 -0.345 -0.347148 -0.175 -0.179644
8.253 -0.335 -0.345927 -0.18 -0.180121
8.256 -0.345 -0.345685 -0.18 -0.179428
8.258 -0.355 -0.346157 -0.19 -0.178727
8.261 -0.37 -0.344876 -0.17 -0.176626
8.264 -0.35 -0.340874 -0.18 -0.173856
8.267 -0.345 -0.337901 -0.175 -0.175085
8.269 -0.335 -0.336791 -0.18 -0.182869
8.272 -0.335 -0.338578 -0.185 -0.199434
8.275 -0.335 -0.343965 -0.2 -0.221845
8.278 -0.355 -0.356077 -0.195 -0.24499
8.281 -0.355 -0.375781 -0.2 -0.264042
8.283 -0.345 -0.400644 -0.225 -0.276837
8.286 -0.355 -0.430098 -0.255 -0.282409
8.289 -0.395 -0.460713 -0.295 -0.279702
8.292 -0.45 -0.49117 -0.33 -0.262586
8.294 -0.48 -0.510698 -0.34 -0.227127
8.297 -0.505 -0.510508 -0.305 -0.164379
8.3 -0.525 -0.479619 -0.195 -0.0712569
8.303 -0.545 -0.41093 -0.065 0.0383916
8.306 -0.5 -0.301697 0.07 0.140897
8.308 -0.395 -0.160523 0.18 0.223733
8.311 -0.255 -0.00883298 0.285 0.287174
8.314 -0.07 0.131156 0.415 0.331548
8.317 0.145 0.246146 0.555 0.356352
8.319 0.425 0.327967 0.67 0.357659
8.322 0.685 0.378192 0.7 0.334647
8.325 0.875 0.400413 0.555 0.290276
8.328 0.925 0.395105 0.21 0.225665
8.331 0.795 0.361337 -0.125 0.148553
8.333 0.47 0.296876 -0.265 0.0643723
8.336 0.02 0.205647 -0.24 -0.0212537
8.339 -0.325 0.0941076 -0.215 -0.105369
8.342 -0.47 -0.0301602 -0.215 -0.181742
8.344 -0.485 -0.157635 -0.23 -0.242771
8.347 -0.41 -0.278155 -0.22 -0.281061
8.35 -0.365 -0.377086 -0.21 -0.292259
8.353 -0.355 -0.445402 -0.235 -0.279099
8.356 -0.365 -0.476375 -0.235 -0.251497
8.358 -0.38 -0.47128 -0.235 -0.230188
8.361 -0.385 -0.44137 -0.23 -0.223959
8.364 -0.38 -0.403135 -0.225 -0.226263
8.367 -0.37 -0.376713 -0.21 -0.228284
8.369 -0.37 -0.36804 -0.215 -0.229006
8.372 -0.375 -0.371491 -0.225 -0.229608
8.375 -0.385 -0.3795 -0.24 -0.230678
8.378 -0.395 -0.384338 -0.25 -0.23009
8.381 -0.385 -0.38594 -0.23 -0.22933
8.383 -0.38 -0.38517 -0.23 -0.230229
8.386 -0.385 -0.385673 -0.225 -0.232228
8.389 -0.375 -0.387787 -0.23 -0.234023
8.392 -0.39 -0.390467 -0.24 -0.234931
8.394 -0.405 -0.392533 -0.235 -0.234971
8.397 -0.405 -0.392787 -0.23 -0.232663
8.4 -0.39 -0.392886 -0.225 -0.231654
8.403 -0.385 -0.392488 -0.23 -0.23101
8.406 -0.385 -0.393437 -0.245 -0.231649
8.408 -0.39 -0.395021 -0.235 -0.232831
8.411 -0.41 -0.395113 -0.235 -0.231764
8.414 -0.4 -0.394008 -0.22 -0.229382
8.417 -0.39 -0.392033 -0.22 -0.227287
8.419 -0.385 -0.39015 -0.225 -0.226283
8.422 -0.385 -0.389165 -0.23 -0.226947
8.425 -0.395 -0.389452 -0.245 -0.227571
8.428 -0.39 -0.389542 -0.225 -0.225799
8.431 -0.395 -0.387775 -0.22 -0.223732
8.433 -0.38 -0.385876 -0.21 -0.222099
8.436 -0.375 -0.38465 -0.21 -0.221991
8.439 -0.38 -0.384206 -0.22 -0.222292
8.442 -0.385 -0.385493 -0.24 -0.222723
8.444 -0.4 -0.386453 -0.235 -0.220879
8.447 -0.385 -0.385286 -0.225 -0.219075
8.45 -0.38 -0.383362 -0.21 -0.218146
8.453 -0.375 -0.38239 -0.2 -0.218496
8.456 -0.38 -0.382368 -0.225 -0.221569
8.458 -0.395 -0.383159 -0.225 -0.223171
8.461 -0.395 -0.383926 -0.225 -0.223861
8.464 -0.385 -0.383831 -0.225 -0.22331
8.467 -0.375 -0.382564 -0.215 -0.222865
8.469 -0.37 -0.381308 -0.215 -0.224153
8.472 -0.365 -0.380528 -0.235 -0.227313
8.475 -0.385 -0.381736 -0.24 -0.230652
8.478 -0.395 -0.380974 -0.24 -0.231749
8.481 -0.385 -0.378759 -0.235 -0.231719
8.483 -0.385 -0.376553 -0.22 -0.230541
8.486 -0.37 -0.374913 -0.225 -0.231299
8.489 -0.375 -0.373937 -0.235 -0.233338
8.492 -0.37 -0.374577 -0.245 -0.234694
8.494 -0.375 -0.374393 -0.245 -0.235631
8.497 -0.375 -0.373266 -0.23 -0.235194
8.5 -0.37 -0.370914 -0.225 -0.234542
8.503 -0.355 -0.369013 -0.22 -0.236711
8.506 -0.365 -0.368975 -0.245 -0.239722
8.508 -0.38 -0.369887 -0.25 -0.243057
8.511 -0.375 -0.371347 -0.255 -0.246443
8.514 -0.37 -0.37278 -0.255 -0.249219
8.517 -0.38 -0.373038 -0.24 -0.252287
8.519 -0.365 -0.37355 -0.25 -0.257158
8.522 -0.37 -0.374003 -0.26 -0.263199
8.525 -0.375 -0.375917 -0.275 -0.269514
8.528 -0.39 -0.377396 -0.285 -0.274833
8.531 -0.38 -0.378441 -0.275 -0.279263
8.533 -0.375 -0.377681 -0.28 -0.283856
8.536 -0.38 -0.377226 -0.29 -0.290567
8.539 -0.37 -0.377823 -0.3 -0.297968
8.542 -0.375 -0.378181 -0.305 -0.304663
8.544 -0.38 -0.378392 -0.315 -0.310856
8.547 -0.385 -0.378331 -0.31 -0.315194
8.55 -0.385 -0.377128 -0.315 -0.320175
8.553 -0.37 -0.376984 -0.325 -0.325593
8.556 -0.375 -0.37712 -0.335 -0.332305
8.558 -0.375 -0.379135 -0.35 -0.33907
8.561 -0.38 -0.380436 -0.345 -0.343238
8.564 -0.38 -0.380588 -0.34 -0.346196
8.567 -0.38 -0.381191 -0.335 -0.349333
8.569 -0.38 -0.380768 -0.35 -0.353027
8.572 -0.375 -0.381832 -0.36 -0.356402
8.575 -0.39 -0.383047 -0.37 -0.358557
8.578 -0.395 -0.384181 -0.365 -0.358916
8.581 -0.385 -0.384462 -0.36 -0.35694
8.583 -0.385 -0.382913 -0.345 -0.353629
8.586 -0.375 -0.383632 -0.34 -0.349859
8.589 -0.375 -0.383544 -0.35 -0.347259
8.592 -0.385 -0.383864 -0.355 -0.341492
8.594 -0.385 -0.382689 -0.345 -0.332919
8.597 -0.39 -0.379918 -0.325 -0.321867
8.6 -0.37 -0.376446 -0.305 -0.311831
8.603 -0.365 -0.371551 -0.3 -0.302038
8.606 -0.365 -0.367587 -0.285 -0.293522
8.608 -0.375 -0.363511 -0.285 -0.284879
8.611 -0.385 -0.358401 -0.28 -0.275188
8.614 -0.35 -0.353885 -0.265 -0.263405
8.617 -0.345 -0.347985 -0.23 -0.251885
8.619 -0.325 -0.342342 -0.235 -0.242269
8.622 -0.325 -0.33764 -0.24 -0.235098
8.625 -0.33 -0.33262 -0.245 -0.2268
8.628 -0.325 -0.327955 -0.225 -0.217543
8.631 -0.325 -0.320696 -0.215 -0.208347
8.633 -0.315 -0.312615 -0.195 -0.200181
8.636 -0.315 -0.306273 -0.18 -0.192553
8.639 -0.315 -0.301654 -0.18 -0.186415
8.642 -0.3 -0.29887 -0.19 -0.180067
8.644 -0.3 -0.293078 -0.18 -0.173374
